/*** Spectra Vista SIG Data ***/
name= ROOT.sig
comm= Averaged Ref/Tar of files: RT1,RT2,RT3
data=
346.4  509.60  89.60  17.58
347.9  549.06  87.64  15.96
349.5  608.40  94.22  15.49
351.1  655.20  99.22  15.14
352.6  708.40  103.31  14.58
354.2  752.68  106.03  14.09
355.7  818.30  117.19  14.32
357.3  873.81  122.75  14.05
358.8  891.23  124.19  13.93
360.4  967.31  133.90  13.84
361.9  1009.93  137.45  13.61
363.5  1059.53  137.81  13.01
365.1  1102.67  143.55  13.02
366.6  1156.59  148.69  12.86
368.2  1218.77  155.56  12.76
369.7  1306.00  160.64  12.30
371.3  1379.56  172.75  12.52
372.8  1457.48  180.39  12.38
374.4  1528.58  188.91  12.36
375.9  1575.56  196.83  12.49
377.4  1632.76  202.74  12.42
379.0  1683.54  208.98  12.41
380.5  1741.87  219.32  12.59
382.1  1805.51  224.98  12.46
383.6  1862.60  234.36  12.58
385.2  1949.75  243.47  12.49
386.7  2036.04  257.03  12.62
388.3  2135.96  273.20  12.79
389.8  2212.47  286.58  12.95
391.3  2314.34  301.15  13.01
392.9  2392.65  316.18  13.21
394.4  2474.90  330.18  13.34
395.9  2552.82  350.00  13.71
397.5  2664.75  372.96  14.00
399.0  2774.82  390.16  14.06
400.6  2852.64  394.69  13.84
402.1  2910.24  401.62  13.80
403.6  2965.71  405.82  13.68
405.1  3036.77  420.59  13.85
406.7  3133.76  439.49  14.02
408.2  3234.33  458.42  14.17
409.7  3330.88  476.82  14.32
411.3  3437.91  496.64  14.45
412.8  3528.93  515.40  14.60
414.3  3634.54  537.14  14.78
415.8  3740.00  558.50  14.93
417.4  3868.37  579.88  14.99
418.9  3954.39  597.25  15.10
420.4  4037.85  611.33  15.14
421.9  4106.74  627.10  15.27
423.5  4196.00  639.95  15.25
425.0  4263.51  652.53  15.30
426.5  4364.50  666.50  15.27
428.0  4488.82  688.54  15.34
429.5  4615.58  712.06  15.43
431.1  4756.23  740.59  15.57
432.6  4917.76  769.13  15.64
434.1  5064.68  797.47  15.75
435.6  5199.35  823.79  15.84
437.1  5333.25  852.67  15.99
438.6  5454.84  878.09  16.10
440.1  5584.70  901.77  16.15
441.6  5717.14  928.22  16.24
443.1  5852.25  955.13  16.32
444.7  5982.11  982.70  16.43
446.2  6104.50  1007.59  16.51
447.7  6213.60  1034.02  16.64
449.2  6315.84  1057.39  16.74
450.7  6414.72  1076.89  16.79
452.2  6543.45  1097.52  16.77
453.7  6682.65  1121.35  16.78
455.2  6842.54  1152.39  16.84
456.7  7029.44  1188.82  16.91
458.2  7231.16  1228.26  16.99
459.7  7428.75  1270.50  17.10
461.2  7633.63  1309.04  17.15
462.7  7815.14  1345.24  17.21
464.2  8000.76  1380.92  17.26
465.7  8191.53  1418.14  17.31
467.2  8352.58  1451.97  17.38
468.7  8552.00  1487.73  17.40
470.2  8711.17  1520.52  17.45
471.7  8854.00  1570.35  17.74
473.2  9050.37  1629.17  18.00
474.6  9252.88  1653.96  17.88
476.1  9378.88  1650.77  17.60
477.6  9464.51  1659.57  17.53
479.1  9567.20  1681.25  17.57
480.6  9658.16  1703.57  17.64
482.1  9797.74  1735.71  17.72
483.6  9963.22  1767.88  17.74
485.1  10140.49  1810.58  17.85
486.6  10356.19  1857.83  17.94
488.0  10562.50  1905.91  18.04
489.5  10784.97  1957.71  18.15
491.0  10998.86  2010.68  18.28
492.5  11224.98  2063.23  18.38
494.0  11462.99  2118.63  18.48
495.4  11663.85  2167.77  18.59
496.9  11870.36  2218.31  18.69
498.4  12074.30  2267.16  18.78
499.9  12278.41  2315.88  18.86
501.4  12476.75  2363.31  18.94
502.8  12664.51  2408.24  19.02
504.3  12846.60  2450.76  19.08
505.8  13033.73  2493.56  19.13
507.2  13172.68  2524.18  19.16
508.7  13289.99  2549.71  19.19
510.2  13412.81  2575.76  19.20
511.6  13494.72  2597.15  19.25
513.1  13630.43  2623.99  19.25
514.6  13795.53  2656.22  19.25
516.0  13946.28  2683.85  19.24
517.5  14135.83  2724.75  19.28
519.0  14365.19  2768.27  19.27
520.5  14579.60  2814.68  19.31
521.9  14828.55  2869.71  19.35
523.4  15093.49  2931.08  19.42
524.8  15349.14  2992.06  19.49
526.3  15633.70  3060.70  19.58
527.8  15915.89  3131.63  19.68
529.2  16178.21  3198.88  19.77
530.7  16455.24  3270.41  19.87
532.1  16698.15  3336.86  19.98
533.6  16994.07  3412.15  20.08
535.0  17295.55  3490.29  20.18
536.5  17581.25  3566.61  20.29
538.0  17895.84  3645.65  20.37
539.4  18160.64  3725.83  20.52
540.9  18488.86  3817.62  20.65
542.3  18738.28  3896.75  20.80
543.8  18940.29  3954.16  20.88
545.2  19020.35  3983.73  20.94
546.6  19057.19  4007.01  21.03
548.1  19121.11  4034.84  21.10
549.5  19166.91  4061.58  21.19
551.0  19217.70  4085.81  21.26
552.4  19311.21  4116.18  21.31
553.9  19371.38  4139.43  21.37
555.3  19461.20  4170.58  21.43
556.8  19596.88  4214.84  21.51
558.2  19743.75  4256.55  21.56
559.6  19902.71  4303.66  21.62
561.1  20117.50  4366.60  21.71
562.5  20332.52  4428.88  21.78
564.0  20611.34  4503.72  21.85
565.4  20865.50  4575.87  21.93
566.8  21177.73  4661.86  22.01
568.3  21463.05  4743.40  22.10
569.7  21776.78  4829.05  22.18
571.1  22080.65  4912.31  22.25
572.6  22373.82  4997.59  22.34
574.0  22675.95  5079.14  22.40
575.4  22958.44  5159.81  22.47
576.9  23231.09  5236.88  22.54
578.3  23477.03  5308.16  22.61
579.7  23721.74  5378.02  22.67
581.1  23920.49  5436.51  22.73
582.6  24132.47  5500.26  22.79
584.0  24305.80  5557.79  22.87
585.4  24549.94  5630.68  22.94
586.8  24845.17  5727.06  23.05
588.3  25201.80  5832.68  23.14
589.7  25517.70  5926.13  23.22
591.1  25735.55  5996.58  23.30
592.5  25883.00  6047.82  23.37
594.0  25998.42  6086.20  23.41
595.4  26057.54  6117.95  23.48
596.8  26115.38  6148.14  23.54
598.2  26174.55  6175.13  23.59
599.6  26202.06  6196.34  23.65
601.0  26298.70  6238.21  23.72
602.4  26372.18  6271.02  23.78
603.9  26501.77  6320.85  23.85
605.3  26625.41  6369.99  23.92
606.7  26749.80  6417.84  23.99
608.1  26941.18  6489.04  24.09
609.5  27151.69  6563.90  24.17
610.9  27387.74  6647.11  24.27
612.3  27589.20  6723.22  24.37
613.7  27871.80  6828.19  24.50
615.1  28061.64  6911.46  24.63
616.5  28235.16  7006.57  24.82
617.9  28534.12  7137.54  25.01
619.3  28808.15  7251.61  25.17
620.7  29149.14  7358.80  25.25
622.1  29527.66  7514.50  25.45
623.5  29951.83  7755.98  25.89
624.9  30436.35  8029.26  26.38
626.3  30757.12  8244.82  26.81
627.7  30461.43  8259.29  27.11
629.1  30188.34  8229.91  27.26
630.5  30083.03  8219.97  27.32
631.9  30076.12  8225.89  27.35
633.3  30078.24  8222.06  27.34
634.7  30183.54  8275.33  27.42
636.1  30268.81  8355.59  27.60
637.5  30374.19  8402.28  27.66
638.9  30520.15  8435.47  27.64
640.2  30643.60  8397.76  27.40
641.6  30733.56  8297.33  27.00
643.0  30777.50  8206.54  26.66
644.4  30869.16  8202.24  26.57
645.8  30855.38  8163.67  26.46
647.2  31023.20  8065.71  26.00
648.5  31185.15  7783.73  24.96
649.9  31117.13  7368.74  23.68
651.3  31099.80  7108.89  22.86
652.7  31059.00  7126.40  22.94
654.1  30961.56  7323.26  23.65
655.5  30829.51  7531.61  24.43
656.8  30685.81  7655.65  24.95
658.2  30861.69  7814.90  25.32
659.6  31181.89  7988.14  25.62
660.9  31452.29  8131.01  25.85
662.3  31767.46  8257.52  25.99
663.7  32102.70  8370.18  26.07
665.0  32334.98  8473.42  26.21
666.4  32575.38  8571.40  26.31
667.8  32873.84  8686.76  26.42
669.1  33084.01  8789.68  26.57
670.5  33327.47  8887.87  26.67
671.9  33513.12  8942.95  26.68
673.2  33742.50  9005.50  26.69
674.6  33950.66  9075.70  26.73
676.0  34219.05  9166.67  26.79
677.3  34494.18  9263.39  26.85
678.7  34767.13  9368.13  26.95
680.0  35103.31  9492.66  27.04
681.4  35420.13  9613.16  27.14
682.8  35763.00  9726.54  27.20
684.1  36073.44  9840.01  27.28
685.5  36318.59  9959.17  27.42
686.8  36607.26  10080.92  27.54
688.2  36844.31  10193.85  27.67
689.5  36898.97  10260.81  27.81
690.9  36950.15  10313.57  27.91
692.2  37008.15  10356.23  27.98
693.6  37024.93  10385.67  28.05
694.9  37005.38  10387.25  28.07
696.2  37027.13  10413.48  28.12
697.6  37047.86  10436.94  28.17
698.9  37049.76  10458.98  28.23
700.3  37075.62  10494.70  28.31
701.6  37124.24  10544.61  28.40
703.0  37178.40  10599.00  28.51
704.3  37172.20  10645.57  28.64
705.6  37157.22  10685.89  28.76
707.0  37168.46  10721.90  28.85
708.3  37076.04  10734.95  28.95
709.6  36967.81  10737.83  29.05
711.0  36867.73  10734.42  29.12
712.3  36770.31  10721.11  29.16
713.6  36755.88  10739.62  29.22
714.9  36684.64  10745.19  29.29
716.3  36701.44  10778.10  29.37
717.6  36734.04  10821.35  29.46
718.9  36680.73  10857.97  29.60
720.2  36496.25  10861.48  29.76
721.6  36394.28  10864.27  29.85
722.9  36240.12  10831.85  29.89
724.2  36067.30  10786.67  29.91
725.5  35963.70  10765.75  29.94
726.8  35833.96  10741.78  29.98
728.1  35810.80  10750.05  30.02
729.5  35779.10  10748.11  30.04
730.8  35779.13  10752.54  30.05
732.1  35704.25  10735.21  30.07
733.4  35690.92  10730.77  30.07
734.7  35685.89  10727.41  30.06
736.0  35729.66  10726.98  30.02
737.3  35717.44  10721.18  30.02
738.6  35830.21  10764.83  30.04
739.9  36014.88  10816.49  30.03
741.2  36161.58  10871.95  30.06
742.5  36363.94  10942.69  30.09
743.8  36737.66  11058.55  30.10
745.1  37309.08  11227.75  30.09
746.4  37926.98  11474.07  30.25
747.7  38536.99  11763.47  30.53
749.0  39118.92  12055.95  30.82
750.3  39493.02  12265.74  31.06
751.6  39440.80  12308.97  31.21
752.9  39084.79  12197.97  31.21
754.2  38731.25  12052.83  31.12
755.4  38386.91  11903.22  31.01
756.7  38244.09  11836.27  30.95
758.0  38261.36  11818.61  30.89
759.3  38489.95  11863.79  30.82
760.6  38786.44  11946.30  30.80
761.9  39062.28  12026.28  30.79
763.1  39197.21  12096.17  30.86
764.4  39371.54  12183.80  30.95
765.7  39490.75  12242.53  31.00
767.0  39577.16  12296.97  31.07
768.2  39644.64  12336.35  31.12
769.5  39697.68  12361.56  31.14
770.8  39836.32  12403.73  31.14
772.0  39856.44  12431.85  31.19
773.3  39898.95  12482.19  31.28
774.6  39978.84  12548.20  31.39
775.8  40054.79  12614.07  31.49
777.1  40085.96  12641.03  31.53
778.4  40059.57  12642.60  31.56
779.6  39999.54  12626.04  31.57
780.9  39948.00  12597.87  31.54
782.1  39837.20  12572.08  31.56
783.4  39802.88  12592.32  31.64
784.6  39851.08  12608.59  31.64
785.9  40095.40  12671.45  31.60
787.1  40531.58  12833.27  31.66
788.4  40834.19  13072.66  32.01
789.6  40796.10  13238.16  32.45
790.9  40479.11  13221.42  32.66
792.1  40128.24  13094.67  32.63
793.4  39739.41  12975.85  32.65
794.6  39507.48  12914.19  32.69
795.8  39314.07  12857.49  32.70
797.1  39097.95  12782.86  32.69
798.3  38940.83  12730.11  32.69
799.5  38821.14  12704.30  32.73
800.8  38733.05  12682.73  32.74
802.0  38591.76  12665.04  32.82
803.2  38469.72  12653.89  32.89
804.5  38377.94  12647.93  32.96
805.7  38264.87  12638.58  33.03
806.9  38181.95  12628.37  33.07
808.1  38074.65  12619.07  33.14
809.4  38033.33  12612.74  33.16
810.6  37951.55  12588.64  33.17
811.8  37942.61  12588.70  33.18
813.0  37965.80  12584.01  33.15
814.2  37975.49  12607.29  33.20
815.4  38039.93  12678.72  33.33
816.6  38032.65  12728.40  33.47
817.9  38050.16  12784.93  33.60
819.1  37997.24  12790.68  33.66
820.3  37865.18  12782.61  33.76
821.5  37787.61  12782.28  33.83
822.7  37714.41  12774.62  33.87
823.9  37704.87  12785.57  33.91
825.1  37688.07  12800.16  33.96
826.3  37716.38  12812.88  33.97
827.5  37726.06  12841.23  34.04
828.7  37779.60  12883.52  34.10
829.9  37796.29  12895.67  34.12
831.0  37849.02  12933.39  34.17
832.2  37913.75  12961.80  34.19
833.4  37950.44  12989.47  34.23
834.6  37978.13  13008.44  34.25
835.8  38031.53  13041.32  34.29
837.0  38073.26  13073.44  34.34
838.1  38178.69  13111.63  34.34
839.3  38239.24  13139.26  34.36
840.5  38296.24  13168.36  34.39
841.7  38381.58  13175.15  34.33
842.9  38485.06  13196.61  34.29
844.0  38543.94  13228.76  34.32
845.2  38626.85  13257.66  34.32
846.4  38724.98  13299.80  34.34
847.5  38888.12  13359.81  34.35
848.7  39002.30  13435.19  34.45
849.9  39141.74  13526.83  34.56
851.0  39173.78  13617.66  34.76
852.2  39245.07  13663.62  34.82
853.3  39202.67  13687.56  34.91
854.5  39188.19  13702.20  34.97
855.6  39170.88  13700.16  34.98
856.8  39193.80  13718.13  35.00
857.9  39192.81  13735.98  35.05
859.1  39326.60  13774.33  35.03
860.2  39300.24  13779.58  35.06
861.4  39344.78  13800.92  35.08
862.5  39384.29  13816.46  35.08
863.7  39467.66  13831.93  35.05
864.8  39454.45  13830.23  35.05
865.9  39398.65  13815.73  35.07
867.1  39448.45  13844.73  35.10
868.2  39441.53  13864.68  35.15
869.3  39465.67  13868.72  35.14
870.5  39438.89  13854.87  35.13
871.6  39473.54  13852.15  35.09
872.7  39541.37  13871.04  35.08
873.9  39548.50  13880.23  35.10
875.0  39546.05  13897.27  35.14
876.1  39583.15  13893.26  35.10
877.2  39616.79  13904.25  35.10
878.3  39601.98  13911.14  35.13
879.4  39662.11  13924.22  35.11
880.5  39702.60  13948.49  35.13
881.7  39698.10  13966.16  35.18
882.8  39775.46  14016.03  35.24
883.9  39785.32  14051.70  35.32
885.0  39766.55  14084.21  35.42
886.1  39735.85  14132.88  35.57
887.2  39664.66  14130.93  35.63
888.3  39567.00  14151.20  35.77
889.4  39535.02  14142.27  35.77
890.5  39459.91  14129.45  35.81
891.6  39428.33  14138.26  35.86
892.7  39429.01  14115.31  35.80
893.8  39492.50  14108.40  35.72
894.9  39505.51  14115.59  35.73
896.0  39527.49  14145.59  35.79
897.0  39487.40  14156.50  35.85
898.1  39490.45  14162.82  35.86
899.2  39536.22  14166.29  35.83
900.3  39503.73  14148.85  35.82
901.4  39454.09  14148.79  35.86
902.4  39461.49  14158.91  35.88
903.5  39418.10  14133.85  35.86
904.6  39431.18  14146.85  35.88
905.7  39454.64  14173.73  35.92
906.7  39397.52  14184.01  36.00
907.8  39514.80  14195.63  35.92
908.9  39443.33  14190.14  35.98
909.9  39411.21  14187.52  36.00
911.0  39357.50  14187.53  36.05
912.1  39280.99  14175.51  36.09
913.1  39233.48  14141.57  36.04
914.2  39173.92  14121.54  36.05
915.2  39170.79  14127.86  36.07
916.3  39094.50  14145.04  36.18
917.3  39076.47  14154.27  36.22
918.4  39031.30  14146.64  36.24
919.4  39022.48  14160.00  36.29
920.5  39026.74  14171.38  36.31
921.5  39018.63  14191.75  36.37
922.6  38959.72  14171.83  36.38
923.6  39026.05  14188.58  36.36
924.7  39022.50  14192.87  36.37
925.7  39030.84  14194.74  36.37
926.7  39009.32  14249.30  36.53
927.8  39032.57  14310.46  36.66
928.8  39142.62  14364.98  36.70
929.9  39330.10  14401.06  36.62
930.9  39447.46  14469.78  36.68
931.9  39602.61  14537.10  36.71
932.9  39864.58  14655.40  36.76
934.0  39909.81  14666.40  36.75
935.0  39942.68  14670.00  36.73
936.0  39929.50  14649.11  36.69
937.0  39883.94  14639.57  36.71
938.1  39848.52  14599.18  36.64
939.1  39753.89  14587.64  36.69
940.1  39867.76  14637.60  36.72
941.1  39995.43  14692.46  36.74
942.1  40229.45  14747.05  36.66
943.1  40393.76  14796.25  36.63
944.1  40552.56  14875.27  36.68
945.2  40570.32  14917.45  36.77
946.2  40685.67  14945.34  36.73
947.2  40740.25  14972.87  36.75
948.2  40874.09  15015.27  36.74
949.2  40954.06  15039.97  36.72
950.2  41026.00  15050.36  36.68
951.2  41012.16  15096.82  36.81
952.2  41170.94  15150.25  36.80
953.2  41257.13  15196.62  36.83
954.2  41395.95  15222.74  36.77
955.2  41401.94  15237.55  36.80
956.2  41391.82  15229.18  36.79
957.2  41524.97  15264.67  36.76
958.2  41486.28  15282.30  36.84
959.2  41625.00  15322.44  36.81
960.1  41647.94  15329.35  36.81
961.1  41725.78  15333.69  36.75
962.1  41752.50  15360.31  36.79
963.1  41720.60  15376.00  36.85
964.1  41837.60  15410.18  36.83
965.1  41932.95  15430.40  36.80
966.1  41961.44  15466.52  36.86
967.0  42058.17  15512.36  36.88
968.0  42094.69  15517.18  36.86
969.0  42115.20  15544.96  36.91
970.0  42092.26  15543.45  36.93
971.0  42266.18  15559.12  36.81
971.9  42275.33  15595.42  36.89
972.9  42388.85  15647.48  36.91
973.9  42492.13  15706.26  36.96
974.9  42580.28  15732.17  36.95
975.8  42630.52  15810.95  37.09
976.8  42806.43  15860.68  37.05
977.8  42848.34  15911.76  37.14
978.8  42868.95  15958.10  37.23
979.7  43050.58  16024.79  37.22
980.7  43264.32  16038.55  37.07
981.7  43347.07  16077.98  37.09
982.6  43545.07  16195.37  37.19
983.6  44003.55  16282.92  37.00
984.6  44377.46  16442.81  37.05
985.5  44900.28  16630.75  37.04
986.5  45688.01  16884.01  36.96
987.5  46285.78  17322.80  37.43
988.4  47161.40  17783.33  37.71
989.4  47812.76  18043.18  37.74
990.4  48753.98  18781.47  38.52
991.3  50274.64  19439.53  38.67
992.3  50864.45  20228.40  39.77
993.2  51610.85  21063.21  40.81
994.2  53891.66  21742.21  40.34
995.2  55394.96  22568.32  40.74
996.1  55625.12  23228.07  41.76
997.1  56348.70  23277.77  41.31
998.0  54473.40  23342.48  42.85
999.0  55283.87  23823.86  43.09
1000.0  55127.21  23800.95  43.17
1000.9  55875.58  24081.59  43.10
1001.9  56355.47  24407.19  43.31
1002.8  54776.67  24029.25  43.87
1003.8  57170.04  24206.35  42.34
1004.8  54763.20  24217.50  44.22
961.5  49984.08  15662.32  31.33
965.5  48959.90  15296.41  31.24
969.5  47367.08  14714.94  31.07
973.4  45664.01  14304.75  31.33
977.4  44063.24  14136.46  32.08
981.4  43484.76  14348.25  33.00
985.3  43466.28  14694.18  33.81
989.3  43739.41  15085.39  34.49
993.3  44088.36  15406.30  34.94
997.2  44246.85  15586.10  35.23
1001.2  44240.69  15681.64  35.45
1005.2  44147.66  15704.14  35.57
1009.1  44170.72  15752.90  35.66
1013.1  44298.35  15863.76  35.81
1017.1  44409.64  15990.25  36.01
1021.0  44418.65  16077.14  36.19
1025.0  44431.92  16161.56  36.37
1029.0  44310.95  16180.02  36.51
1032.9  44196.36  16180.10  36.61
1036.9  44214.81  16211.05  36.66
1040.9  44317.48  16273.43  36.72
1044.8  44471.57  16380.32  36.83
1048.8  44586.22  16465.02  36.93
1052.7  44660.98  16518.78  36.99
1056.7  44664.90  16551.16  37.06
1060.7  44652.74  16580.22  37.13
1064.6  44643.90  16594.52  37.17
1068.6  44545.19  16562.61  37.18
1072.5  44448.63  16538.74  37.21
1076.5  44390.31  16547.57  37.28
1080.4  44363.13  16555.60  37.32
1084.4  44428.99  16602.96  37.37
1088.3  44526.89  16654.11  37.40
1092.3  44515.11  16662.68  37.43
1096.2  44485.25  16657.87  37.45
1100.2  44489.30  16648.67  37.42
1104.1  44387.15  16590.25  37.38
1108.1  44344.78  16551.99  37.33
1112.0  44255.25  16495.26  37.27
1116.0  44078.91  16413.78  37.24
1119.9  43920.46  16348.36  37.22
1123.9  43980.05  16352.45  37.18
1127.8  43933.44  16311.04  37.13
1131.8  43891.20  16252.19  37.03
1135.7  43904.71  16191.67  36.88
1139.6  43873.24  16094.06  36.68
1143.6  43814.30  15978.83  36.47
1147.5  43764.96  15849.81  36.22
1151.4  43600.54  15675.27  35.95
1155.4  43567.43  15577.28  35.75
1159.3  43548.37  15507.54  35.61
1163.2  43379.84  15404.26  35.51
1167.2  43333.14  15363.60  35.45
1171.1  43320.14  15338.75  35.41
1175.0  43247.45  15296.00  35.37
1179.0  43203.54  15257.36  35.32
1182.9  43281.26  15263.93  35.27
1186.8  43262.79  15249.20  35.25
1190.7  43059.97  15158.59  35.20
1194.7  42822.73  15061.21  35.17
1198.6  42602.18  14984.97  35.17
1202.5  42456.57  14927.04  35.16
1206.4  42335.53  14880.81  35.15
1210.3  42230.32  14843.34  35.15
1214.2  42126.94  14805.73  35.15
1218.2  41984.08  14775.13  35.19
1222.1  41854.50  14759.33  35.26
1226.0  41760.57  14740.67  35.30
1229.9  41673.90  14730.82  35.35
1233.8  41576.55  14731.36  35.43
1237.7  41528.30  14734.62  35.48
1241.6  41457.25  14718.54  35.50
1245.5  41309.15  14685.08  35.55
1249.4  41175.26  14663.52  35.61
1253.3  41058.30  14638.16  35.65
1257.2  40978.33  14612.98  35.66
1261.1  40873.57  14564.45  35.63
1265.0  40757.89  14517.83  35.62
1268.9  40587.74  14474.10  35.66
1272.8  40626.75  14490.35  35.67
1276.7  40780.33  14537.37  35.65
1280.6  40842.56  14563.18  35.66
1284.5  40748.73  14536.95  35.67
1288.4  40697.88  14521.11  35.68
1292.3  40562.50  14456.75  35.64
1296.2  40411.46  14392.34  35.61
1300.1  40239.63  14328.19  35.61
1303.9  40009.73  14216.69  35.53
1307.8  39785.54  14092.78  35.42
1311.7  39554.21  13955.99  35.28
1315.6  39326.35  13811.56  35.12
1319.5  39086.11  13650.53  34.92
1323.3  38870.69  13495.12  34.72
1327.2  38681.53  13347.64  34.51
1331.1  38474.56  13194.60  34.29
1335.0  38203.08  13019.26  34.08
1338.8  38009.09  12852.18  33.81
1342.7  37876.27  12687.31  33.50
1346.5  37598.34  12444.55  33.10
1350.4  37400.07  12220.71  32.68
1354.3  37094.65  11967.07  32.26
1358.1  36731.71  11704.79  31.87
1362.0  36487.36  11515.26  31.56
1365.8  36370.47  11391.19  31.32
1369.7  36432.94  11347.79  31.15
1373.5  36366.82  11249.96  30.93
1377.4  36166.21  11059.02  30.58
1381.2  35990.96  10849.25  30.14
1385.1  35936.27  10641.29  29.61
1389.0  35813.45  10388.87  29.01
1392.8  35598.92  10109.89  28.40
1396.6  35460.61  9834.70  27.73
1400.5  35253.63  9547.14  27.08
1404.3  35072.57  9288.39  26.48
1408.2  35016.72  9086.09  25.95
1412.0  34945.02  8905.38  25.48
1415.8  34962.39  8768.25  25.08
1419.6  34891.95  8640.34  24.76
1423.5  34842.23  8528.24  24.48
1427.3  34796.45  8437.84  24.25
1431.1  34758.75  8370.00  24.08
1434.9  34669.05  8301.25  23.94
1438.8  34606.94  8256.06  23.86
1442.6  34573.84  8221.09  23.78
1446.4  34441.31  8179.68  23.75
1450.2  34332.12  8160.20  23.77
1454.0  34220.52  8140.36  23.79
1457.8  34188.19  8141.89  23.81
1461.6  34155.00  8150.90  23.86
1465.4  34045.70  8137.24  23.90
1469.2  33870.20  8119.48  23.97
1473.0  33726.92  8125.86  24.09
1476.8  33664.28  8157.52  24.23
1480.7  33601.58  8199.84  24.40
1484.4  33488.64  8226.24  24.56
1488.2  33386.04  8260.44  24.74
1492.0  33257.25  8296.31  24.95
1495.8  33142.20  8329.53  25.13
1499.6  33034.11  8360.89  25.31
1503.4  32933.47  8403.06  25.52
1507.2  32852.74  8469.41  25.78
1510.9  32722.34  8519.93  26.04
1514.7  32573.11  8537.27  26.21
1518.5  32453.90  8550.71  26.35
1522.3  32317.90  8556.83  26.48
1526.0  32200.64  8561.28  26.59
1529.8  32127.61  8551.79  26.62
1533.6  32011.66  8522.74  26.62
1537.3  31894.88  8512.35  26.69
1541.1  31782.08  8510.63  26.78
1544.8  31651.20  8502.40  26.86
1548.6  31528.46  8481.31  26.90
1552.4  31450.00  8466.75  26.92
1556.1  31366.15  8496.05  27.09
1559.9  31270.43  8560.94  27.38
1563.6  31150.17  8588.46  27.57
1567.3  31046.10  8583.29  27.65
1571.1  30855.35  8559.39  27.74
1574.8  30723.08  8559.78  27.86
1578.6  30633.26  8554.61  27.93
1582.3  30519.48  8535.90  27.97
1586.0  30400.45  8534.55  28.07
1589.8  30269.89  8525.26  28.16
1593.5  30123.48  8506.28  28.24
1597.2  29998.09  8508.34  28.36
1600.9  29883.71  8508.22  28.47
1604.7  29753.95  8497.01  28.56
1608.4  29639.51  8489.17  28.64
1612.1  29489.62  8469.77  28.72
1615.8  29365.23  8450.67  28.78
1619.5  29298.37  8446.25  28.83
1623.2  29161.12  8428.08  28.90
1626.9  29003.45  8396.27  28.95
1630.6  28846.40  8357.07  28.97
1634.3  28721.00  8342.10  29.05
1638.0  28599.28  8333.22  29.14
1641.7  28456.49  8318.13  29.23
1645.4  28299.47  8291.22  29.30
1649.1  28138.66  8257.31  29.35
1652.8  28008.70  8230.38  29.39
1656.4  27859.80  8191.88  29.40
1660.1  27720.43  8147.33  29.39
1663.8  27551.22  8089.91  29.36
1667.5  27406.07  8045.86  29.36
1671.1  27282.14  8001.58  29.33
1674.8  27100.13  7933.76  29.28
1678.5  27060.12  7909.19  29.23
1682.1  27085.37  7898.54  29.16
1685.8  27087.74  7879.41  29.09
1689.5  26985.46  7830.98  29.02
1693.1  26859.21  7768.86  28.92
1696.8  26718.75  7709.25  28.85
1700.4  26575.97  7646.22  28.77
1704.0  26457.91  7591.41  28.69
1707.7  26210.69  7508.67  28.65
1711.3  25940.59  7409.32  28.56
1715.0  25755.85  7322.84  28.43
1718.6  25603.66  7248.70  28.31
1722.2  25471.82  7186.27  28.21
1725.9  25346.15  7127.20  28.12
1729.5  25225.17  7072.57  28.04
1733.1  25122.33  7033.07  28.00
1736.7  25028.77  6991.48  27.93
1740.3  24869.68  6935.12  27.89
1744.0  24796.20  6898.08  27.82
1747.5  24670.34  6843.04  27.74
1751.2  24460.97  6770.43  27.68
1754.8  24300.77  6708.21  27.60
1758.4  24168.99  6653.74  27.53
1762.0  24004.67  6591.25  27.46
1765.5  23878.06  6543.47  27.40
1769.1  23824.80  6515.20  27.35
1772.7  23745.17  6477.79  27.28
1776.3  23631.64  6435.10  27.23
1779.9  23517.13  6389.91  27.17
1783.5  23453.36  6360.37  27.12
1787.0  23338.16  6319.97  27.08
1790.6  23194.11  6275.83  27.06
1794.2  23099.94  6245.47  27.04
1797.8  23019.59  6204.59  26.95
1801.3  22943.45  6175.88  26.92
1804.9  22821.75  6136.38  26.89
1808.4  22758.56  6101.33  26.81
1812.0  22651.25  6045.40  26.69
1815.5  22537.46  5993.68  26.59
1819.1  22377.91  5941.68  26.55
1822.6  22230.86  5898.02  26.53
1826.2  22108.08  5855.36  26.49
1829.7  21962.63  5793.86  26.38
1833.2  21769.52  5719.19  26.27
1836.8  21568.82  5668.24  26.28
1840.3  21408.35  5645.82  26.37
1843.8  21283.15  5622.91  26.42
1847.3  21175.36  5608.37  26.49
1850.8  21026.88  5588.35  26.58
1854.3  20829.70  5540.65  26.60
1857.8  20716.80  5489.47  26.50
1861.3  20743.52  5423.06  26.14
1864.8  20771.48  5306.11  25.55
1868.3  20668.83  5163.54  24.98
1871.8  20505.60  5035.52  24.56
1875.3  20412.67  4937.51  24.19
1878.8  20386.82  4826.02  23.67
1882.3  20318.80  4673.69  23.00
1885.8  20165.84  4505.39  22.34
1889.3  19976.70  4328.98  21.67
1892.7  19815.25  4161.38  21.00
1896.2  19650.94  4032.44  20.52
1899.7  19441.16  3939.20  20.26
1903.1  19313.45  3923.92  20.32
1906.6  19304.54  4011.75  20.78
1910.0  19451.18  4176.55  21.47
1913.5  19794.95  4398.88  22.22
1917.0  20308.75  4738.71  23.33
1920.4  20662.58  4946.08  23.94
1923.8  20806.27  4984.84  23.96
1871.2  18887.00  4170.40  22.08
1873.9  18953.16  4116.36  21.72
1876.7  18991.47  4140.45  21.80
1879.5  19143.67  4098.61  21.41
1882.3  18900.39  3948.49  20.89
1885.1  18757.12  3818.66  20.36
1887.8  18909.61  3705.50  19.60
1890.6  18719.80  3547.48  18.95
1893.4  18700.00  3397.78  18.17
1896.2  18690.78  3259.54  17.44
1898.9  18634.09  3123.88  16.76
1901.7  18493.24  2968.56  16.05
1904.5  18663.12  2879.52  15.43
1907.2  18605.75  2835.75  15.24
1910.0  18464.96  2811.61  15.23
1912.7  18451.36  2784.98  15.09
1915.5  18338.72  2764.80  15.08
1918.2  18231.61  2769.63  15.19
1921.0  18078.76  2756.40  15.25
1923.7  18082.37  2766.94  15.30
1926.5  18028.91  2769.25  15.36
1929.2  17989.40  2768.42  15.39
1932.0  17961.44  2783.96  15.50
1934.7  17922.05  2795.24  15.60
1937.4  17800.47  2796.67  15.71
1940.2  17730.06  2802.88  15.81
1942.9  17801.07  2814.60  15.81
1945.6  17808.94  2844.84  15.97
1948.3  17731.12  2873.96  16.21
1951.1  17698.80  2891.61  16.34
1953.8  17700.00  2920.00  16.50
1956.5  17568.67  2918.13  16.61
1959.2  17632.03  2949.14  16.73
1961.9  17647.56  2979.01  16.88
1964.6  17543.58  2979.96  16.99
1967.3  17598.27  3000.29  17.05
1970.0  17419.60  2998.48  17.21
1972.8  17335.24  3029.92  17.48
1975.5  17419.52  3083.73  17.70
1978.2  17336.04  3081.57  17.78
1980.9  17221.82  3085.04  17.91
1983.5  17185.34  3116.77  18.14
1986.2  17183.55  3129.22  18.21
1988.9  17157.36  3155.41  18.39
1991.6  17017.92  3175.71  18.66
1994.3  16893.86  3167.54  18.75
1997.0  16913.63  3189.93  18.86
1999.7  16876.79  3222.97  19.10
2002.3  16857.27  3231.45  19.17
2005.0  16785.35  3240.09  19.30
2007.7  16706.93  3255.58  19.49
2010.4  16656.07  3257.56  19.56
2013.0  16600.58  3271.75  19.71
2015.7  16495.88  3264.13  19.79
2018.4  16401.61  3255.55  19.85
2021.0  16371.00  3269.67  19.97
2023.7  16264.64  3263.86  20.07
2026.4  16195.83  3249.50  20.06
2029.0  16138.97  3259.66  20.20
2031.7  16029.65  3262.64  20.35
2034.3  16012.75  3244.80  20.26
2037.0  15932.90  3234.44  20.30
2039.6  15864.39  3248.46  20.48
2042.3  15822.15  3240.82  20.48
2044.9  15747.27  3222.01  20.46
2047.5  15719.22  3222.01  20.50
2050.2  15638.00  3201.33  20.47
2052.8  15596.00  3191.07  20.46
2055.4  15487.61  3179.89  20.53
2058.1  15363.60  3157.47  20.55
2060.7  15311.01  3155.56  20.61
2063.3  15243.07  3147.08  20.65
2065.9  15200.63  3129.46  20.59
2068.6  15142.00  3122.01  20.62
2071.2  15102.27  3122.01  20.67
2073.8  15013.06  3103.36  20.67
2076.4  14939.89  3113.53  20.84
2079.0  14937.96  3113.48  20.84
2081.6  14955.68  3097.48  20.71
2084.2  14929.44  3111.36  20.84
2086.8  14795.01  3090.43  20.89
2089.4  14708.12  3065.49  20.84
2092.1  14645.50  3069.44  20.96
2094.7  14574.18  3052.88  20.95
2097.2  14543.50  3045.83  20.94
2099.8  14569.24  3067.76  21.06
2102.4  14455.51  3043.31  21.05
2105.0  14315.55  3028.60  21.16
2107.6  14281.54  3038.22  21.27
2110.2  14245.28  3034.90  21.30
2112.8  14225.04  3030.36  21.30
2115.3  14222.61  3040.62  21.38
2117.9  14223.97  3052.55  21.46
2120.5  14225.20  3057.84  21.50
2123.1  14136.53  3055.65  21.62
2125.6  14079.43  3038.64  21.58
2128.2  14012.88  3023.25  21.57
2130.8  13940.55  3023.48  21.69
2133.3  13889.33  3029.16  21.81
2135.9  13802.30  3013.25  21.83
2138.4  13704.95  2995.78  21.86
2141.0  13601.55  2972.62  21.85
2143.6  13585.34  2971.73  21.87
2146.1  13439.94  2961.84  22.04
2148.7  13282.54  2933.73  22.09
2151.2  13302.67  2938.22  22.09
2153.8  13324.47  2947.26  22.12
2156.3  13227.98  2927.74  22.13
2158.8  13160.05  2926.75  22.24
2161.4  13128.93  2928.68  22.31
2163.9  13034.58  2898.21  22.23
2166.4  12973.85  2869.94  22.12
2169.0  12959.07  2876.84  22.20
2171.5  12876.28  2878.81  22.36
2174.0  12786.55  2866.91  22.42
2176.5  12767.30  2860.43  22.40
2179.1  12718.27  2843.02  22.35
2181.6  12644.21  2831.79  22.40
2184.1  12612.60  2829.49  22.43
2186.6  12631.79  2837.05  22.46
2189.1  12551.10  2820.52  22.47
2191.6  12501.53  2816.96  22.53
2194.1  12512.72  2821.20  22.55
2196.6  12513.32  2810.17  22.46
2199.2  12564.98  2836.02  22.57
2201.7  12503.60  2806.83  22.45
2204.1  12450.01  2792.73  22.43
2206.6  12458.20  2821.12  22.64
2209.1  12429.94  2798.38  22.51
2211.6  12413.54  2778.86  22.39
2214.1  12385.83  2780.29  22.45
2216.6  12340.79  2777.85  22.51
2219.1  12355.98  2766.46  22.39
2221.6  12303.15  2758.57  22.42
2224.0  12230.10  2738.12  22.39
2226.5  12198.83  2716.77  22.27
2229.0  12234.63  2730.65  22.32
2231.5  12152.59  2684.83  22.09
2233.9  12137.64  2647.65  21.81
2236.4  12131.98  2659.54  21.92
2238.9  12024.13  2609.17  21.70
2241.3  12068.10  2571.68  21.31
2243.8  12017.57  2567.79  21.37
2246.2  11870.35  2527.59  21.29
2248.7  11882.39  2487.55  20.93
2251.2  11860.53  2477.67  20.89
2253.6  11784.96  2453.76  20.82
2256.1  11773.44  2419.20  20.55
2258.5  11793.92  2426.65  20.58
2260.9  11696.75  2419.89  20.69
2263.4  11668.53  2377.21  20.37
2265.8  11678.48  2363.14  20.23
2268.3  11583.48  2353.90  20.32
2270.7  11653.18  2342.66  20.10
2273.1  11608.55  2345.74  20.21
2275.6  11523.84  2320.64  20.14
2278.0  11553.06  2308.56  19.98
2280.4  11529.61  2310.28  20.04
2282.8  11402.06  2286.87  20.06
2285.3  11435.59  2283.75  19.97
2287.7  11531.47  2313.06  20.06
2290.1  11440.95  2275.80  19.89
2292.5  11408.96  2257.98  19.79
2294.9  11404.51  2266.94  19.88
2297.3  11303.39  2221.40  19.65
2299.7  11233.01  2207.12  19.65
2302.1  11231.11  2219.51  19.76
2304.5  11113.20  2174.29  19.56
2306.9  10995.60  2106.35  19.16
2309.3  10932.15  2091.08  19.13
2311.7  10856.55  2105.11  19.39
2314.1  10708.33  2083.38  19.46
2316.5  10641.94  2056.68  19.33
2318.9  10674.03  2069.37  19.39
2321.3  10672.73  2050.82  19.22
2323.7  10642.23  2049.91  19.26
2326.1  10606.96  2048.58  19.31
2328.4  10691.58  2030.10  18.99
2330.8  10736.25  2040.91  19.01
2333.2  10617.06  2013.87  18.97
2335.6  10582.60  1991.42  18.82
2337.9  10642.00  2008.76  18.88
2340.3  10592.40  2009.60  18.97
2342.7  10507.23  1993.12  18.97
2345.0  10502.01  1988.85  18.94
2347.4  10493.25  1957.83  18.66
2349.7  10277.63  1916.55  18.65
2352.1  10236.25  1921.18  18.77
2354.4  10290.21  1912.76  18.59
2356.8  10243.45  1879.19  18.35
2359.2  10187.67  1876.33  18.42
2361.5  10122.93  1896.60  18.74
2363.8  10144.75  1875.24  18.48
2366.2  10159.49  1868.31  18.39
2368.5  10097.05  1869.00  18.51
2370.9  10118.68  1828.10  18.07
2373.2  10072.53  1830.14  18.17
2375.5  9932.38  1820.56  18.33
2377.9  9918.93  1817.25  18.32
2380.2  9923.89  1820.45  18.34
2382.5  9856.28  1764.48  17.90
2384.8  9822.88  1752.37  17.84
2387.2  9807.99  1759.69  17.94
2389.5  9759.69  1756.46  18.00
2391.8  9772.85  1761.90  18.03
2394.1  9716.63  1757.79  18.09
2396.4  9652.48  1712.77  17.74
2398.7  9714.10  1703.46  17.54
2401.0  9598.25  1712.62  17.84
2403.3  9511.80  1656.68  17.42
2405.6  9521.83  1644.45  17.27
2407.9  9458.88  1680.02  17.76
2410.2  9400.00  1644.37  17.49
2412.5  9350.27  1617.67  17.30
2414.8  9330.30  1602.12  17.17
2417.1  9280.68  1598.39  17.22
2419.4  9294.64  1602.94  17.25
2421.7  9214.94  1568.24  17.02
2424.0  9156.02  1562.11  17.06
2426.2  9223.40  1539.02  16.69
2428.5  9129.27  1525.15  16.71
2430.8  9112.40  1511.47  16.59
2433.1  9071.93  1471.42  16.22
2435.4  8991.17  1464.03  16.28
2437.6  8963.19  1471.49  16.42
2439.9  8866.09  1429.96  16.13
2442.2  8873.80  1412.61  15.92
2444.4  8827.50  1401.37  15.88
2446.7  8812.56  1366.56  15.51
2448.9  8870.66  1395.54  15.73
2451.2  8802.92  1406.56  15.98
2453.4  8732.64  1374.08  15.73
2455.7  8702.87  1350.13  15.51
2457.9  8608.05  1308.51  15.20
2460.2  8594.01  1296.71  15.09
2462.4  8611.20  1283.36  14.90
2464.7  8503.63  1259.56  14.81
2466.9  8416.62  1251.90  14.87
2469.2  8471.54  1231.52  14.54
2471.4  8370.38  1221.09  14.59
2473.6  8261.63  1209.57  14.64
2475.9  8256.69  1216.94  14.74
2478.1  8211.66  1202.37  14.64
2480.3  8173.00  1190.44  14.57
2482.5  8177.69  1200.92  14.69
2484.8  8119.06  1133.51  13.96
2487.0  8110.30  1140.62  14.06
2489.2  8058.48  1163.41  14.44
2491.4  7946.29  1104.08  13.89
2493.6  7987.26  1073.85  13.44
2495.8  7981.68  1076.89  13.49
2498.0  7985.07  1129.53  14.15
2500.2  7961.63  1126.14  14.14
2502.4  8125.20  1118.88  13.77
2504.6  8272.59  1192.53  14.42
2506.8  8348.61  1243.69  14.90
