/*** Spectra Vista SIG Data ***/
name= EXB.sig
comm= Averaged Ref/Tar of files: EXB1,EXB2,EXB3
data=
346.4  509.60  82.39  16.17
347.9  536.51  86.18  16.06
349.5  577.20  84.45  14.63
351.1  620.88  82.78  13.33
352.6  679.94  86.02  12.65
354.2  723.22  86.40  11.95
355.7  777.89  91.15  11.72
357.3  842.60  94.78  11.25
358.8  838.80  97.40  11.61
360.4  904.00  101.77  11.26
361.9  943.76  101.23  10.73
363.5  997.20  101.11  10.14
365.1  1040.25  103.10  9.91
366.6  1087.54  100.35  9.23
368.2  1161.70  101.17  8.71
369.7  1204.79  109.70  9.11
371.3  1287.37  109.75  8.53
372.8  1354.56  107.57  7.94
374.4  1435.13  113.03  7.88
375.9  1463.02  111.66  7.63
377.4  1512.41  113.62  7.51
379.0  1578.52  119.24  7.55
380.5  1618.77  111.61  6.89
382.1  1669.58  115.83  6.94
383.6  1726.52  115.29  6.68
385.2  1809.50  115.13  6.36
386.7  1900.67  115.16  6.06
388.3  1991.93  117.76  5.91
389.8  2077.97  126.64  6.09
391.3  2163.95  131.08  6.06
392.9  2236.17  135.42  6.06
394.4  2293.88  142.44  6.21
395.9  2364.42  152.39  6.45
397.5  2493.56  159.78  6.41
399.0  2617.23  168.51  6.44
400.6  2691.33  162.63  6.04
402.1  2739.96  166.50  6.08
403.6  2797.88  167.51  5.99
405.1  2865.39  166.65  5.82
406.7  2979.20  175.02  5.87
408.2  3089.54  179.98  5.83
409.7  3183.04  189.06  5.94
411.3  3295.62  202.27  6.14
412.8  3391.47  211.09  6.22
414.3  3507.27  223.21  6.36
415.8  3622.50  233.00  6.43
417.4  3739.34  238.49  6.38
418.9  3830.42  246.25  6.43
420.4  3913.23  257.56  6.58
421.9  3978.48  262.33  6.59
423.5  4044.22  264.94  6.55
425.0  4110.68  268.80  6.54
426.5  4198.95  270.61  6.44
428.0  4314.36  280.24  6.50
429.5  4445.73  285.98  6.43
431.1  4599.50  295.67  6.43
432.6  4769.72  305.81  6.41
434.1  4937.63  312.62  6.33
435.6  5085.18  326.11  6.41
437.1  5233.80  334.88  6.40
438.6  5364.45  343.48  6.40
440.1  5501.44  357.38  6.50
441.6  5653.06  371.40  6.57
443.1  5799.60  385.29  6.64
444.7  5941.01  398.94  6.72
446.2  6051.88  417.91  6.91
447.7  6161.82  435.53  7.07
449.2  6292.08  451.30  7.17
450.7  6396.00  460.10  7.19
452.2  6529.70  474.74  7.27
453.7  6647.26  489.22  7.36
455.2  6815.62  507.39  7.44
456.7  7013.60  524.71  7.48
458.2  7232.90  543.82  7.52
459.7  7456.75  563.97  7.56
461.2  7667.16  577.74  7.54
462.7  7858.10  597.86  7.61
464.2  8041.02  613.42  7.63
465.7  8240.35  632.59  7.68
467.2  8402.63  642.18  7.64
468.7  8584.00  657.87  7.66
470.2  8698.25  672.44  7.73
471.7  8877.75  693.82  7.82
473.2  9159.71  713.36  7.79
474.6  9386.40  721.49  7.69
476.1  9450.96  724.76  7.67
477.6  9499.75  734.46  7.73
479.1  9557.87  739.78  7.74
480.6  9632.82  746.92  7.75
482.1  9760.73  758.82  7.77
483.6  9935.74  776.31  7.81
485.1  10133.78  797.15  7.87
486.6  10366.07  820.02  7.91
488.0  10621.00  849.98  8.00
489.5  10873.80  882.65  8.12
491.0  11134.31  918.05  8.25
492.5  11404.80  960.34  8.42
494.0  11683.71  1004.98  8.60
495.4  11917.95  1049.62  8.81
496.9  12154.26  1104.87  9.09
498.4  12387.41  1160.38  9.37
499.9  12623.63  1220.57  9.67
501.4  12839.71  1286.65  10.02
502.8  13042.06  1357.03  10.41
504.3  13226.40  1430.88  10.82
505.8  13406.54  1512.93  11.28
507.2  13518.16  1588.11  11.75
508.7  13603.31  1667.06  12.25
510.2  13672.60  1751.23  12.81
511.6  13715.26  1832.72  13.36
513.1  13806.21  1924.36  13.94
514.6  13898.29  2022.66  14.55
516.0  13992.63  2119.51  15.15
517.5  14151.40  2226.39  15.73
519.0  14339.95  2340.92  16.32
520.5  14520.56  2457.16  16.92
521.9  14760.83  2583.23  17.50
523.4  15031.28  2708.95  18.02
524.8  15295.25  2832.29  18.52
526.3  15594.01  2958.26  18.97
527.8  15909.50  3082.11  19.37
529.2  16189.50  3197.05  19.75
530.7  16509.28  3308.84  20.04
532.1  16791.25  3408.35  20.30
533.6  17121.20  3512.49  20.52
535.0  17454.94  3613.07  20.70
536.5  17789.22  3709.05  20.85
538.0  18136.88  3800.21  20.95
539.4  18461.69  3889.20  21.07
540.9  18864.39  3984.35  21.12
542.3  19206.33  4077.32  21.23
543.8  19460.81  4149.59  21.32
545.2  19544.37  4185.07  21.41
546.6  19566.05  4199.12  21.46
548.1  19604.97  4219.03  21.52
549.5  19640.65  4228.36  21.53
551.0  19664.79  4238.41  21.55
552.4  19724.92  4251.04  21.55
553.9  19761.60  4254.00  21.53
555.3  19812.20  4256.23  21.48
556.8  19934.49  4264.22  21.39
558.2  20047.50  4266.90  21.28
559.6  20200.16  4270.72  21.14
561.1  20397.00  4280.68  20.99
562.5  20617.77  4290.21  20.81
564.0  20901.40  4301.27  20.58
565.4  21161.13  4309.49  20.37
566.8  21482.31  4325.46  20.13
568.3  21793.28  4325.42  19.85
569.7  22118.60  4324.02  19.55
571.1  22425.71  4321.77  19.27
572.6  22741.56  4314.60  18.97
574.0  23030.70  4305.84  18.70
575.4  23309.44  4297.05  18.43
576.9  23581.06  4285.74  18.17
578.3  23822.01  4277.13  17.95
579.7  24048.22  4267.49  17.75
581.1  24227.75  4249.18  17.54
582.6  24429.78  4241.32  17.36
584.0  24600.48  4228.41  17.19
585.4  24853.74  4230.11  17.02
586.8  25196.68  4252.21  16.88
588.3  25573.86  4283.76  16.75
589.7  25896.78  4308.41  16.64
591.1  26104.75  4307.95  16.50
592.5  26211.06  4305.09  16.42
594.0  26269.26  4285.49  16.31
595.4  26286.44  4264.95  16.22
596.8  26295.56  4250.53  16.16
598.2  26315.92  4230.97  16.08
599.6  26317.98  4209.83  16.00
601.0  26398.05  4200.17  15.91
602.4  26470.93  4188.58  15.82
603.9  26597.64  4178.62  15.71
605.3  26727.57  4168.73  15.60
606.7  26857.80  4142.40  15.42
608.1  27088.39  4135.90  15.27
609.5  27333.21  4122.56  15.08
610.9  27623.29  4118.76  14.91
612.3  27891.32  4106.62  14.72
613.7  28252.28  4108.09  14.54
615.1  28513.62  4092.98  14.35
616.5  28776.05  4081.41  14.18
617.9  29165.50  4090.01  14.02
619.3  29543.24  4105.59  13.90
620.7  29990.55  4130.09  13.77
622.1  30437.05  4143.84  13.61
623.5  30934.60  4160.63  13.45
624.9  31494.75  4185.83  13.29
626.3  31867.36  4187.56  13.14
627.7  31569.69  4109.47  13.02
629.1  31287.59  4072.46  13.02
630.5  31184.65  4077.47  13.08
631.9  31222.21  4088.91  13.10
633.3  31256.33  4092.77  13.09
634.7  31400.48  4093.60  13.04
636.1  31461.82  4069.63  12.94
637.5  31554.77  4032.66  12.78
638.9  31702.82  3996.11  12.60
640.2  31825.04  3953.52  12.42
641.6  31863.78  3893.14  12.22
643.0  31847.61  3807.57  11.96
644.4  31829.55  3732.37  11.73
645.8  31751.71  3632.78  11.44
647.2  31867.94  3605.21  11.31
648.5  31926.34  3580.82  11.22
649.9  31776.23  3520.94  11.08
651.3  31648.05  3455.42  10.92
652.7  31449.15  3396.94  10.80
654.1  31244.46  3311.16  10.60
655.5  31005.95  3219.16  10.38
656.8  30780.41  3122.57  10.14
658.2  30925.42  3058.92  9.89
659.6  31264.45  3014.85  9.64
660.9  31536.04  2964.12  9.40
662.3  31822.64  2913.48  9.16
663.7  32096.40  2860.48  8.91
665.0  32332.90  2808.60  8.69
666.4  32562.99  2761.32  8.48
667.8  32863.56  2729.04  8.30
669.1  33114.69  2702.40  8.16
670.5  33405.09  2688.47  8.05
671.9  33586.56  2679.74  7.98
673.2  33844.75  2683.31  7.93
674.6  34082.18  2701.09  7.93
676.0  34372.41  2728.24  7.94
677.3  34659.68  2770.98  7.99
678.7  34979.63  2832.48  8.10
680.0  35399.92  2926.21  8.27
681.4  35845.89  3044.18  8.49
682.8  36270.33  3191.07  8.80
684.1  36705.24  3382.39  9.22
685.5  37104.21  3613.04  9.74
686.8  37507.62  3886.14  10.36
688.2  37862.83  4210.88  11.12
689.5  38000.96  4557.93  11.99
690.9  38124.79  4935.16  12.94
692.2  38229.60  5343.10  13.98
693.6  38334.37  5778.25  15.07
694.9  38335.34  6213.69  16.21
696.2  38393.33  6666.78  17.36
697.6  38453.39  7116.45  18.51
698.9  38522.88  7577.15  19.67
700.3  38613.54  8035.99  20.81
701.6  38716.02  8491.26  21.93
703.0  38828.83  8929.81  23.00
704.3  38882.19  9328.41  23.99
705.6  38895.39  9724.08  25.00
707.0  38949.12  10094.54  25.92
708.3  38885.46  10428.25  26.82
709.6  38817.35  10749.30  27.69
711.0  38702.88  11035.95  28.51
712.3  38573.15  11313.32  29.33
713.6  38531.64  11613.78  30.14
714.9  38462.14  11883.97  30.90
716.3  38461.08  12162.31  31.62
717.6  38479.84  12445.75  32.34
718.9  38424.85  12685.17  33.01
720.2  38251.08  12867.95  33.64
721.6  38113.53  13054.74  34.25
722.9  37945.16  13211.61  34.82
724.2  37714.27  13341.76  35.38
725.5  37534.96  13488.88  35.94
726.8  37360.68  13608.84  36.43
728.1  37271.09  13740.94  36.87
729.5  37167.13  13848.96  37.26
730.8  37093.13  13966.73  37.65
732.1  36996.92  14078.27  38.05
733.4  36936.39  14187.78  38.41
734.7  36864.47  14273.29  38.72
736.0  36851.62  14379.27  39.02
737.3  36774.45  14463.77  39.33
738.6  36845.76  14575.46  39.56
739.9  37000.34  14729.41  39.81
741.2  37119.81  14841.37  39.98
742.5  37372.03  15012.11  40.17
743.8  37768.50  15243.69  40.36
745.1  38387.22  15555.02  40.52
746.4  39127.73  15896.55  40.63
747.7  39918.22  16242.64  40.69
749.0  40672.12  16572.99  40.75
750.3  41122.66  16762.97  40.76
751.6  41047.35  16754.69  40.82
752.9  40630.59  16635.14  40.94
754.2  40176.47  16472.47  41.00
755.4  39652.21  16315.38  41.15
756.7  39478.17  16279.57  41.24
758.0  39495.60  16312.66  41.30
759.3  39730.28  16453.01  41.41
760.6  40061.56  16635.28  41.52
761.9  40384.10  16790.86  41.58
763.1  40567.56  16889.26  41.63
764.4  40796.65  17000.58  41.67
765.7  40953.25  17069.43  41.68
767.0  41079.80  17128.09  41.69
768.2  41207.04  17192.45  41.72
769.5  41279.98  17255.64  41.80
770.8  41469.61  17332.64  41.80
772.0  41501.32  17355.38  41.82
773.3  41583.65  17392.48  41.83
774.6  41708.58  17444.38  41.82
775.8  41815.15  17468.08  41.77
777.1  41846.51  17495.05  41.81
778.4  41799.94  17466.66  41.79
779.6  41775.90  17463.87  41.80
780.9  41704.00  17444.80  41.83
782.1  41523.21  17401.52  41.91
783.4  41558.40  17383.25  41.83
784.6  41567.36  17401.91  41.86
785.9  41861.56  17535.53  41.89
787.1  42409.87  17767.36  41.89
788.4  42854.47  17921.65  41.82
789.6  42849.18  17838.05  41.63
790.9  42483.96  17640.70  41.52
792.1  42011.92  17469.10  41.58
793.4  41570.15  17285.59  41.58
794.6  41283.15  17143.77  41.53
795.8  41024.39  17037.64  41.53
797.1  40758.68  16925.67  41.53
798.3  40551.64  16857.72  41.57
799.5  40444.72  16801.99  41.54
800.8  40323.21  16746.68  41.53
802.0  40187.32  16691.46  41.53
803.2  40033.64  16619.14  41.51
804.5  39942.72  16572.85  41.49
805.7  39829.66  16520.39  41.48
806.9  39715.93  16462.55  41.45
808.1  39632.97  16430.61  41.46
809.4  39553.39  16416.07  41.50
810.6  39489.45  16390.92  41.51
811.8  39474.39  16398.81  41.54
813.0  39504.71  16413.76  41.55
814.2  39525.61  16440.84  41.60
815.4  39644.33  16466.24  41.53
816.6  39709.73  16490.29  41.53
817.9  39791.57  16511.34  41.49
819.1  39719.87  16489.29  41.51
820.3  39621.11  16441.26  41.50
821.5  39546.25  16397.89  41.47
822.7  39480.04  16400.53  41.54
823.9  39499.25  16410.64  41.55
825.1  39541.96  16424.12  41.54
826.3  39583.35  16435.97  41.52
827.5  39640.56  16466.80  41.54
828.7  39708.48  16494.43  41.54
829.9  39767.03  16528.67  41.56
831.0  39870.82  16575.09  41.57
832.2  39993.87  16639.77  41.61
833.4  40076.64  16681.38  41.62
834.6  40148.44  16734.38  41.68
835.8  40238.10  16772.49  41.68
837.0  40328.28  16840.08  41.76
838.1  40500.72  16915.21  41.77
839.3  40601.19  16965.78  41.79
840.5  40716.87  17013.76  41.79
841.7  40854.11  17096.22  41.85
842.9  40980.73  17191.04  41.95
844.0  41100.82  17256.88  41.99
845.2  41245.09  17332.23  42.02
846.4  41368.25  17391.14  42.04
847.5  41564.18  17490.22  42.08
848.7  41743.64  17566.30  42.08
849.9  41936.76  17620.08  42.02
851.0  42020.98  17642.95  41.99
852.2  42107.61  17650.37  41.92
853.3  42066.96  17649.22  41.96
854.5  42098.11  17648.76  41.92
855.6  42095.43  17653.43  41.94
856.8  42111.00  17681.47  41.99
857.9  42111.88  17700.85  42.03
859.1  42240.60  17722.08  41.96
860.2  42245.56  17725.51  41.96
861.4  42273.83  17755.99  42.00
862.5  42309.54  17776.21  42.01
863.7  42384.63  17806.00  42.01
864.8  42387.10  17808.70  42.01
865.9  42333.82  17783.71  42.01
867.1  42372.33  17781.59  41.97
868.2  42368.54  17823.43  42.07
869.3  42393.50  17804.94  42.00
870.5  42342.80  17775.39  41.98
871.6  42318.48  17799.26  42.06
872.7  42385.23  17837.21  42.08
873.9  42404.90  17836.33  42.06
875.0  42391.36  17818.49  42.03
876.1  42363.75  17787.64  41.99
877.2  42397.32  17823.64  42.04
878.3  42381.77  17811.86  42.03
879.4  42397.70  17821.70  42.03
880.5  42451.56  17810.83  41.96
881.7  42410.55  17814.85  42.01
882.8  42454.72  17823.86  41.98
883.9  42482.63  17803.41  41.91
885.0  42446.04  17760.38  41.84
886.1  42420.10  17731.56  41.80
887.2  42295.80  17661.86  41.76
888.3  42201.80  17607.31  41.72
889.4  42117.30  17533.13  41.63
890.5  42026.34  17505.72  41.65
891.6  41981.69  17489.21  41.66
892.7  41962.31  17464.09  41.62
893.8  41981.79  17475.91  41.63
894.9  41952.35  17496.73  41.71
896.0  41968.71  17461.72  41.61
897.0  41952.48  17470.35  41.64
898.1  41951.64  17444.40  41.58
899.2  41983.30  17453.35  41.57
900.3  41907.57  17439.11  41.61
901.4  41820.39  17395.62  41.60
902.4  41828.99  17403.34  41.61
903.5  41775.96  17363.23  41.56
904.6  41798.96  17385.36  41.59
905.7  41805.42  17373.35  41.56
906.7  41815.90  17368.69  41.54
907.8  41839.20  17378.76  41.54
908.9  41746.38  17339.91  41.54
909.9  41734.69  17312.17  41.48
911.0  41681.88  17300.43  41.51
912.1  41602.05  17245.34  41.45
913.1  41535.52  17230.72  41.48
914.2  41457.24  17191.78  41.47
915.2  41368.59  17188.13  41.55
916.3  41436.15  17202.92  41.52
917.3  41410.15  17187.72  41.51
918.4  41310.50  17140.13  41.49
919.4  41328.17  17118.79  41.42
920.5  41309.67  17113.37  41.43
921.5  41323.66  17113.54  41.41
922.6  41255.80  17094.95  41.44
923.6  41303.54  17090.44  41.38
924.7  41344.50  17086.77  41.33
925.7  41333.16  17093.64  41.36
926.7  41356.90  17097.11  41.34
927.8  41415.30  17067.05  41.21
928.8  41570.85  17131.14  41.21
929.9  41658.93  17185.11  41.25
930.9  41879.39  17240.43  41.17
931.9  42070.56  17323.35  41.18
932.9  42412.10  17451.85  41.15
934.0  42452.50  17463.76  41.14
935.0  42440.57  17488.37  41.21
936.0  42488.02  17465.85  41.11
937.0  42429.47  17439.66  41.10
938.1  42380.86  17422.18  41.11
939.1  42337.65  17425.38  41.16
940.1  42429.30  17471.89  41.18
941.1  42615.86  17553.21  41.19
942.1  42903.92  17639.81  41.11
943.1  43057.09  17733.52  41.19
944.1  43342.63  17818.78  41.11
945.2  43356.60  17840.87  41.15
946.2  43482.48  17848.57  41.05
947.2  43549.00  17870.78  41.04
948.2  43743.16  17939.63  41.01
949.2  43840.88  17994.93  41.05
950.2  43906.25  17978.38  40.95
951.2  44010.96  18034.69  40.98
952.2  44061.91  18056.71  40.98
953.2  44318.14  18097.93  40.84
954.2  44380.80  18140.25  40.87
955.2  44428.35  18144.14  40.84
956.2  44460.20  18141.01  40.80
957.2  44542.35  18174.56  40.80
958.2  44649.94  18175.25  40.71
959.2  44705.25  18215.10  40.74
960.1  44813.66  18259.05  40.74
961.1  44928.76  18303.41  40.74
962.1  44958.75  18270.88  40.64
963.1  44986.01  18315.47  40.71
964.1  45106.16  18378.66  40.75
965.1  45270.70  18430.55  40.71
966.1  45207.41  18447.56  40.81
967.0  45355.66  18506.41  40.80
968.0  45441.48  18511.96  40.74
969.0  45453.60  18535.25  40.78
970.0  45557.64  18599.76  40.83
971.0  45615.57  18650.28  40.89
971.9  45699.86  18626.34  40.76
972.9  45781.93  18653.72  40.74
973.9  45829.88  18653.74  40.70
974.9  45973.78  18730.66  40.74
975.8  45979.65  18671.90  40.61
976.8  46106.16  18674.44  40.50
977.8  46097.80  18706.72  40.58
978.8  46103.70  18736.58  40.64
979.7  46387.55  18853.27  40.64
980.7  46405.76  18880.42  40.69
981.7  46694.84  18950.39  40.58
982.6  46857.76  19011.96  40.57
983.6  47433.79  19237.93  40.56
984.6  47818.98  19441.55  40.66
985.5  48063.24  19702.03  40.99
986.5  48770.77  19993.11  40.99
987.5  50043.63  20200.76  40.37
988.4  50895.90  20585.99  40.45
989.4  52431.75  20939.41  39.94
990.4  53425.02  21272.69  39.82
991.3  55387.31  21609.57  39.02
992.3  55950.90  21910.84  39.16
993.2  58118.31  22648.94  38.97
994.2  59457.94  22939.80  38.58
995.2  60710.63  22866.74  37.67
996.1  61737.77  22861.31  37.03
997.1  61885.85  22973.76  37.12
998.0  61668.00  22657.28  36.74
999.0  61787.86  22450.79  36.34
1000.0  62252.49  23350.93  37.51
1000.9  62564.91  22507.63  35.97
1001.9  61626.12  21677.26  35.18
1002.8  61885.09  22077.92  35.68
1003.8  61970.58  22460.70  36.24
1004.8  62064.96  22209.52  35.78
961.5  55881.62  20915.32  37.43
965.5  54589.44  20840.66  38.18
969.5  52393.79  20600.92  39.32
973.4  50126.74  20089.76  40.08
977.4  48345.52  19541.00  40.42
981.4  47464.01  19271.29  40.60
985.3  47176.98  19082.33  40.45
989.3  47304.75  19008.57  40.18
993.3  47508.66  18959.93  39.91
997.2  47541.75  18851.71  39.65
1001.2  47520.33  18782.14  39.52
1005.2  47455.76  18765.72  39.54
1009.1  47529.68  18819.87  39.60
1013.1  47663.39  18916.33  39.69
1017.1  47785.75  18988.66  39.74
1021.0  47816.50  18992.78  39.72
1025.0  47819.30  18986.22  39.70
1029.0  47652.00  18912.79  39.69
1032.9  47495.63  18855.76  39.70
1036.9  47497.16  18868.69  39.73
1040.9  47608.97  18943.07  39.79
1044.8  47827.54  19053.77  39.84
1048.8  48004.98  19138.79  39.87
1052.7  48133.54  19201.97  39.89
1056.7  48188.20  19228.81  39.90
1060.7  48194.60  19236.61  39.91
1064.6  48198.22  19250.63  39.94
1068.6  48113.17  19231.01  39.97
1072.5  48026.55  19197.19  39.97
1076.5  47975.49  19181.10  39.98
1080.4  47966.69  19172.83  39.97
1084.4  48069.59  19186.34  39.91
1088.3  48170.15  19216.18  39.89
1092.3  48152.58  19192.18  39.86
1096.2  48142.77  19164.18  39.81
1100.2  48183.64  19176.38  39.80
1104.1  48079.94  19131.26  39.79
1108.1  48035.13  19097.10  39.76
1112.0  47943.86  19027.76  39.69
1116.0  47742.57  18906.44  39.60
1119.9  47581.47  18796.85  39.50
1123.9  47666.30  18775.18  39.39
1127.8  47639.04  18694.40  39.24
1131.8  47617.38  18594.07  39.05
1135.7  47659.94  18485.06  38.79
1139.6  47675.62  18319.38  38.43
1143.6  47638.82  18141.66  38.08
1147.5  47616.88  17991.84  37.78
1151.4  47500.80  17806.62  37.49
1155.4  47513.75  17726.04  37.31
1159.3  47522.52  17696.41  37.24
1163.2  47363.89  17598.89  37.16
1167.2  47347.50  17561.94  37.09
1171.1  47369.57  17541.69  37.03
1175.0  47314.40  17490.09  36.97
1179.0  47268.08  17464.92  36.95
1182.9  47358.68  17491.25  36.93
1186.8  47350.70  17472.63  36.90
1190.7  47139.70  17372.51  36.85
1194.7  46883.87  17259.83  36.81
1198.6  46652.76  17167.92  36.80
1202.5  46480.48  17118.03  36.83
1206.4  46340.80  17091.44  36.88
1210.3  46236.01  17069.10  36.92
1214.2  46114.66  17043.20  36.96
1218.2  45952.68  17005.74  37.01
1222.1  45800.88  16979.79  37.07
1226.0  45686.61  16963.38  37.13
1229.9  45598.02  16949.40  37.17
1233.8  45484.04  16920.97  37.20
1237.7  45416.66  16894.82  37.20
1241.6  45332.53  16868.08  37.21
1245.5  45166.97  16807.84  37.21
1249.4  45023.84  16756.03  37.22
1253.3  44894.25  16725.37  37.26
1257.2  44816.00  16706.43  37.28
1261.1  44716.86  16670.77  37.28
1265.0  44587.73  16621.06  37.28
1268.9  44400.64  16537.88  37.25
1272.8  44460.00  16542.35  37.21
1276.7  44653.74  16595.03  37.16
1280.6  44733.81  16602.67  37.11
1284.5  44649.07  16542.30  37.05
1288.4  44631.63  16503.75  36.98
1292.3  44511.50  16419.33  36.89
1296.2  44360.33  16313.86  36.78
1300.1  44197.71  16192.08  36.64
1303.9  43963.66  16017.46  36.43
1307.8  43715.49  15836.52  36.23
1311.7  43464.03  15655.69  36.02
1315.6  43214.30  15462.78  35.78
1319.5  42962.15  15252.19  35.50
1323.3  42734.84  15033.39  35.18
1327.2  42525.95  14813.97  34.84
1331.1  42285.13  14581.16  34.48
1335.0  41985.32  14316.84  34.10
1338.8  41775.29  14079.07  33.70
1342.7  41609.18  13855.07  33.30
1346.5  41242.98  13545.05  32.84
1350.4  40931.78  13246.58  32.36
1354.3  40517.39  12906.15  31.85
1358.1  40047.65  12579.05  31.41
1362.0  39764.09  12345.06  31.05
1365.8  39670.89  12177.49  30.70
1369.7  39786.92  12050.31  30.29
1373.5  39741.56  11773.69  29.63
1377.4  39487.75  11307.06  28.63
1381.2  39276.49  10776.01  27.44
1385.1  39242.56  10269.35  26.17
1389.0  39129.70  9693.85  24.77
1392.8  38925.66  9045.61  23.24
1396.6  38773.68  8416.85  21.71
1400.5  38560.99  7833.04  20.31
1404.3  38397.74  7348.09  19.14
1408.2  38363.03  6968.22  18.16
1412.0  38325.01  6663.33  17.39
1415.8  38359.09  6440.13  16.79
1419.6  38319.36  6254.40  16.32
1423.5  38299.37  6117.51  15.97
1427.3  38266.05  6015.68  15.72
1431.1  38248.58  5946.58  15.55
1434.9  38159.15  5887.17  15.43
1438.8  38104.90  5849.24  15.35
1442.6  38084.31  5826.93  15.30
1446.4  37958.74  5803.99  15.29
1450.2  37871.04  5799.39  15.31
1454.0  37772.76  5792.72  15.34
1457.8  37752.26  5815.09  15.40
1461.6  37732.17  5854.17  15.52
1465.4  37609.21  5892.12  15.67
1469.2  37426.03  5939.27  15.87
1473.0  37290.43  6012.04  16.12
1476.8  37245.30  6120.99  16.43
1480.7  37186.44  6236.10  16.77
1484.4  37061.40  6347.52  17.13
1488.2  36961.08  6474.44  17.52
1492.0  36836.53  6596.87  17.91
1495.8  36720.78  6716.56  18.29
1499.6  36605.30  6830.92  18.66
1503.4  36479.87  6930.35  19.00
1507.2  36356.05  7015.88  19.30
1510.9  36204.04  7100.07  19.61
1514.7  36047.88  7193.28  19.95
1518.5  35919.58  7296.53  20.31
1522.3  35781.38  7385.75  20.64
1526.0  35674.52  7477.13  20.96
1529.8  35609.17  7584.29  21.30
1533.6  35484.33  7671.10  21.62
1537.3  35352.32  7752.03  21.93
1541.1  35225.58  7844.99  22.27
1544.8  35097.60  7952.00  22.66
1548.6  34949.35  8046.99  23.02
1552.4  34850.72  8130.79  23.33
1556.1  34790.76  8182.75  23.52
1559.9  34705.82  8213.02  23.66
1563.6  34578.39  8258.77  23.88
1567.3  34459.02  8322.78  24.15
1571.1  34243.92  8346.86  24.37
1574.8  34100.68  8382.35  24.58
1578.6  34000.34  8434.42  24.81
1582.3  33854.52  8462.64  25.00
1586.0  33716.51  8488.23  25.18
1589.8  33582.95  8514.03  25.35
1593.5  33431.04  8526.30  25.50
1597.2  33294.67  8540.36  25.65
1600.9  33154.19  8547.47  25.78
1604.7  33000.40  8556.28  25.93
1608.4  32856.34  8572.58  26.09
1612.1  32695.22  8571.50  26.22
1615.8  32545.96  8570.17  26.33
1619.5  32465.11  8586.83  26.45
1623.2  32316.22  8589.82  26.58
1626.9  32130.25  8577.11  26.69
1630.6  31953.68  8564.38  26.80
1634.3  31816.04  8558.91  26.90
1638.0  31668.49  8532.53  26.94
1641.7  31487.82  8494.27  26.98
1645.4  31299.16  8453.21  27.01
1649.1  31105.38  8401.76  27.01
1652.8  30949.76  8360.62  27.01
1656.4  30780.36  8313.08  27.01
1660.1  30613.88  8263.85  26.99
1663.8  30416.03  8218.60  27.02
1667.5  30257.50  8184.10  27.05
1671.1  30134.40  8145.63  27.03
1674.8  29937.06  8090.07  27.02
1678.5  29873.87  8071.22  27.02
1682.1  29892.23  8058.50  26.96
1685.8  29901.92  8045.69  26.91
1689.5  29795.07  8003.48  26.86
1693.1  29653.44  7944.24  26.79
1696.8  29511.75  7881.84  26.71
1700.4  29358.15  7815.34  26.62
1704.0  29237.42  7758.05  26.53
1707.7  28983.16  7663.09  26.44
1711.3  28689.26  7547.72  26.31
1715.0  28479.20  7455.14  26.18
1718.6  28311.14  7380.48  26.07
1722.2  28171.19  7308.28  25.94
1725.9  28024.58  7234.98  25.82
1729.5  27888.80  7171.93  25.72
1733.1  27770.82  7112.24  25.61
1736.7  27655.67  7047.46  25.48
1740.3  27487.42  6959.07  25.32
1744.0  27395.86  6885.31  25.13
1747.5  27255.01  6803.19  24.96
1751.2  27041.09  6697.16  24.77
1754.8  26881.34  6606.45  24.58
1758.4  26750.86  6519.45  24.37
1762.0  26572.85  6423.22  24.17
1765.5  26446.23  6349.17  24.01
1769.1  26402.40  6304.00  23.88
1772.7  26328.38  6252.64  23.75
1776.3  26208.92  6190.69  23.62
1779.9  26081.92  6130.82  23.51
1783.5  26027.60  6095.01  23.42
1787.0  25897.14  6045.08  23.34
1790.6  25747.79  5996.27  23.29
1794.2  25651.68  5960.81  23.24
1797.8  25552.23  5927.46  23.20
1801.3  25471.95  5898.11  23.16
1804.9  25318.13  5855.50  23.13
1808.4  25235.40  5830.87  23.11
1812.0  25102.89  5788.38  23.06
1815.5  24947.72  5743.48  23.02
1819.1  24745.29  5692.53  23.00
1822.6  24588.72  5650.79  22.98
1826.2  24468.62  5604.82  22.91
1829.7  24298.19  5542.69  22.81
1833.2  24066.25  5459.87  22.69
1836.8  23846.10  5380.53  22.56
1840.3  23701.28  5326.08  22.47
1843.8  23605.26  5277.63  22.36
1847.3  23552.23  5226.90  22.19
1850.8  23482.37  5151.55  21.94
1854.3  23328.90  5042.33  21.61
1857.8  23249.20  4912.27  21.13
1861.3  23245.10  4739.74  20.39
1864.8  23154.55  4518.45  19.51
1868.3  22923.75  4228.27  18.44
1871.8  22725.12  3901.44  17.17
1875.3  22663.55  3614.83  15.95
1878.8  22668.35  3333.35  14.70
1882.3  22613.87  3039.20  13.44
1885.8  22446.65  2754.63  12.27
1889.3  22245.45  2505.08  11.26
1892.7  22073.02  2296.14  10.40
1896.2  21956.57  2167.36  9.87
1899.7  21800.31  2089.74  9.59
1903.1  21719.54  2069.76  9.53
1906.6  21807.87  2187.74  10.03
1910.0  22098.88  2397.52  10.85
1913.5  22634.73  2682.02  11.85
1917.0  23151.98  3187.86  13.77
1920.4  23436.08  3636.37  15.52
1923.8  23677.97  3810.87  16.09
1871.2  20787.15  3094.42  14.89
1873.9  20907.54  2978.10  14.24
1876.7  21048.38  2799.13  13.30
1879.5  21252.88  2582.13  12.15
1882.3  20993.42  2384.73  11.36
1885.1  20851.78  2120.52  10.17
1887.8  20921.79  1885.74  9.01
1890.6  20723.54  1751.65  8.45
1893.4  20650.67  1606.00  7.78
1896.2  20581.86  1457.85  7.08
1898.9  20516.13  1372.45  6.69
1901.7  20380.18  1267.76  6.22
1904.5  20546.36  1214.94  5.91
1907.2  20463.00  1179.58  5.76
1910.0  20358.58  1145.68  5.63
1912.7  20364.96  1112.92  5.46
1915.5  20273.08  1096.39  5.41
1918.2  20210.43  1066.34  5.28
1921.0  20079.87  1049.84  5.23
1923.7  20126.73  1070.54  5.32
1926.5  20096.89  1076.87  5.36
1929.2  20080.15  1064.61  5.30
1932.0  20066.00  1061.76  5.29
1934.7  20016.92  1076.62  5.38
1937.4  19925.11  1075.24  5.40
1940.2  19881.39  1088.99  5.48
1942.9  19959.98  1109.40  5.56
1945.6  19965.22  1132.50  5.67
1948.3  19894.11  1150.19  5.78
1951.1  19862.99  1159.85  5.84
1953.8  19866.00  1174.00  5.91
1956.5  19752.03  1206.99  6.11
1959.2  19805.76  1232.88  6.22
1961.9  19837.86  1247.63  6.29
1964.6  19745.08  1279.25  6.48
1967.3  19784.70  1294.45  6.54
1970.0  19621.84  1300.43  6.63
1972.8  19538.55  1344.34  6.88
1975.5  19602.81  1387.24  7.08
1978.2  19540.64  1407.44  7.20
1980.9  19419.73  1424.47  7.34
1983.5  19352.05  1441.57  7.45
1986.2  19366.05  1471.49  7.60
1988.9  19348.59  1519.02  7.85
1991.6  19202.00  1532.34  7.98
1994.3  19065.89  1540.44  8.08
1997.0  19096.32  1575.26  8.25
1999.7  19065.00  1605.26  8.42
2002.3  19034.90  1632.03  8.57
2005.0  18965.86  1662.71  8.77
2007.7  18877.00  1681.78  8.91
2010.4  18811.60  1701.58  9.05
2013.0  18774.16  1734.50  9.24
2015.7  18678.28  1753.31  9.39
2018.4  18548.96  1768.19  9.53
2021.0  18504.50  1794.44  9.70
2023.7  18401.60  1793.99  9.75
2026.4  18333.68  1822.38  9.94
2029.0  18267.40  1861.33  10.19
2031.7  18144.97  1865.57  10.28
2034.3  18142.15  1884.35  10.39
2037.0  18035.71  1892.62  10.49
2039.6  17974.39  1917.75  10.67
2042.3  17908.74  1935.88  10.81
2044.9  17825.78  1953.22  10.96
2047.5  17820.17  1976.59  11.09
2050.2  17715.60  1970.27  11.12
2052.8  17679.20  1984.27  11.22
2055.4  17538.43  1988.25  11.34
2058.1  17416.00  1996.40  11.46
2060.7  17404.47  2030.10  11.66
2063.3  17299.63  2030.55  11.74
2065.9  17230.17  2028.61  11.77
2068.6  17165.96  2049.08  11.94
2071.2  17119.44  2063.67  12.05
2073.8  17041.85  2069.83  12.15
2076.4  16999.98  2081.61  12.24
2079.0  17011.74  2098.13  12.33
2081.6  16984.09  2107.19  12.41
2084.2  16930.00  2115.31  12.49
2086.8  16834.24  2134.45  12.68
2089.4  16742.01  2143.57  12.80
2092.1  16637.33  2151.44  12.93
2094.7  16574.28  2163.01  13.05
2097.2  16549.50  2163.72  13.07
2099.8  16541.98  2184.34  13.20
2102.4  16400.35  2170.41  13.23
2105.0  16267.80  2166.95  13.32
2107.6  16238.35  2189.42  13.48
2110.2  16217.39  2201.35  13.57
2112.8  16200.74  2211.45  13.65
2115.3  16182.65  2230.43  13.78
2117.9  16188.40  2243.96  13.86
2120.5  16181.17  2246.50  13.88
2123.1  16113.83  2251.28  13.97
2125.6  16056.05  2249.94  14.01
2128.2  15953.26  2240.85  14.05
2130.8  15859.35  2255.18  14.22
2133.3  15825.33  2273.33  14.37
2135.9  15723.21  2268.03  14.42
2138.4  15584.92  2246.34  14.41
2141.0  15487.96  2228.24  14.39
2143.6  15482.13  2239.79  14.47
2146.1  15358.67  2227.26  14.50
2148.7  15182.57  2215.22  14.59
2151.2  15188.80  2225.42  14.65
2153.8  15199.37  2236.93  14.72
2156.3  15064.95  2219.92  14.74
2158.8  14994.07  2208.11  14.73
2161.4  14983.43  2223.04  14.84
2163.9  14894.98  2207.32  14.82
2166.4  14806.99  2199.76  14.86
2169.0  14777.42  2213.56  14.98
2171.5  14688.72  2194.83  14.94
2174.0  14586.43  2172.74  14.90
2176.5  14576.25  2184.69  14.99
2179.1  14537.32  2180.45  15.00
2181.6  14435.75  2159.58  14.96
2184.1  14405.16  2172.43  15.08
2186.6  14458.30  2199.97  15.22
2189.1  14358.33  2161.40  15.05
2191.6  14308.00  2156.00  15.07
2194.1  14339.64  2157.98  15.05
2196.6  14340.73  2153.49  15.02
2199.2  14399.84  2193.00  15.23
2201.7  14323.09  2168.10  15.14
2204.1  14264.18  2158.69  15.13
2206.6  14278.44  2172.10  15.21
2209.1  14246.74  2163.76  15.19
2211.6  14236.93  2165.99  15.21
2214.1  14172.61  2168.22  15.30
2216.6  14103.21  2163.78  15.34
2219.1  14137.40  2147.32  15.19
2221.6  14080.86  2145.69  15.24
2224.0  14024.61  2136.14  15.23
2226.5  13983.38  2100.36  15.02
2229.0  13981.89  2107.62  15.07
2231.5  13918.22  2084.80  14.98
2233.9  13896.33  2063.99  14.85
2236.4  13868.98  2070.25  14.93
2238.9  13826.00  2052.46  14.84
2241.3  13828.76  2050.87  14.83
2243.8  13758.80  2032.72  14.77
2246.2  13610.98  1977.10  14.53
2248.7  13571.61  1969.47  14.51
2251.2  13563.12  1975.47  14.57
2253.6  13482.24  1949.44  14.46
2256.1  13474.56  1923.84  14.28
2258.5  13495.78  1909.31  14.15
2260.9  13407.16  1893.21  14.12
2263.4  13372.75  1867.99  13.97
2265.8  13367.17  1870.76  14.00
2268.3  13288.30  1844.63  13.88
2270.7  13342.05  1814.25  13.60
2273.1  13272.94  1815.24  13.68
2275.6  13194.24  1793.28  13.59
2278.0  13232.60  1770.50  13.38
2280.4  13249.81  1790.76  13.52
2282.8  13117.21  1771.93  13.51
2285.3  13103.68  1723.83  13.16
2287.7  13191.09  1731.22  13.12
2290.1  13097.39  1707.84  13.04
2292.5  13047.88  1660.09  12.72
2294.9  13056.31  1684.73  12.90
2297.3  12972.40  1667.69  12.86
2299.7  12875.52  1617.50  12.56
2302.1  12826.01  1610.62  12.56
2304.5  12696.88  1571.92  12.38
2306.9  12602.80  1535.33  12.18
2309.3  12519.08  1546.44  12.35
2311.7  12473.65  1532.06  12.28
2314.1  12315.17  1480.81  12.02
2316.5  12229.76  1465.68  11.98
2318.9  12290.12  1476.81  12.02
2321.3  12265.32  1465.82  11.95
2323.7  12235.57  1478.86  12.09
2326.1  12214.93  1468.26  12.02
2328.4  12270.09  1433.41  11.68
2330.8  12319.08  1426.05  11.58
2333.2  12235.57  1405.72  11.49
2335.6  12168.54  1388.04  11.41
2337.9  12202.83  1386.94  11.37
2340.3  12141.58  1367.26  11.26
2342.7  12039.09  1359.78  11.29
2345.0  12013.82  1350.44  11.24
2347.4  11993.50  1326.00  11.06
2349.7  11798.34  1274.38  10.80
2352.1  11775.76  1267.92  10.77
2354.4  11820.42  1268.01  10.73
2356.8  11728.38  1254.71  10.70
2359.2  11704.33  1255.22  10.72
2361.5  11645.74  1223.19  10.50
2363.8  11633.53  1206.24  10.37
2366.2  11660.03  1198.96  10.28
2368.5  11627.85  1176.28  10.12
2370.9  11603.83  1182.45  10.19
2373.2  11533.95  1190.12  10.32
2375.5  11398.48  1150.86  10.10
2377.9  11373.04  1141.10  10.03
2380.2  11408.35  1131.67  9.92
2382.5  11308.30  1084.42  9.59
2384.8  11261.28  1071.84  9.52
2387.2  11252.00  1092.38  9.71
2389.5  11242.29  1078.11  9.59
2391.8  11232.13  1033.06  9.20
2394.1  11132.13  1033.24  9.28
2396.4  11089.46  1016.05  9.16
2398.7  11160.99  1000.31  8.96
2401.0  11096.58  1008.78  9.09
2403.3  10926.12  979.40  8.96
2405.6  10921.36  966.34  8.85
2407.9  10891.74  978.62  8.98
2410.2  10793.71  930.81  8.62
2412.5  10752.81  879.13  8.18
2414.8  10737.29  898.63  8.37
2417.1  10694.97  899.85  8.41
2419.4  10638.82  906.54  8.52
2421.7  10597.44  890.13  8.40
2424.0  10571.95  859.42  8.13
2426.2  10576.95  863.13  8.16
2428.5  10508.39  840.09  7.99
2430.8  10485.80  806.60  7.69
2433.1  10443.79  787.34  7.54
2435.4  10361.94  792.63  7.65
2437.6  10328.37  787.03  7.62
2439.9  10224.92  759.90  7.43
2442.2  10193.49  758.45  7.44
2444.4  10223.13  727.49  7.12
2446.7  10173.28  706.64  6.95
2448.9  10197.11  732.32  7.18
2451.2  10173.72  727.12  7.15
2453.4  10028.37  670.97  6.69
2455.7  9998.26  671.01  6.71
2457.9  9908.42  669.52  6.76
2460.2  9870.17  637.05  6.45
2462.4  9896.64  638.56  6.45
2464.7  9834.69  609.81  6.20
2466.9  9751.98  586.36  6.01
2469.2  9722.50  613.60  6.31
2471.4  9624.29  586.48  6.09
2473.6  9553.77  595.86  6.24
2475.9  9536.85  638.95  6.70
2478.1  9427.70  578.41  6.14
2480.3  9377.37  547.65  5.84
2482.5  9321.43  581.40  6.24
2484.8  9240.44  558.26  6.04
2487.0  9258.33  545.63  5.89
2489.2  9302.30  567.89  6.10
2491.4  9183.58  532.83  5.80
2493.6  9147.34  493.82  5.40
2495.8  9177.35  509.41  5.55
2498.0  9103.79  516.12  5.67
2500.2  9132.70  494.27  5.41
2502.4  9403.92  556.48  5.92
2504.6  9512.07  535.23  5.63
2506.8  9585.80  431.88  4.51
