/*** Spectra Vista SIG Data ***/
name= EXF.sig
comm= Averaged Ref/Tar of files: EXF1,EXF2,EXF3
data=
346.4  509.60  102.35  20.08
347.9  536.51  103.75  19.34
349.5  577.20  101.50  17.59
351.1  620.88  100.67  16.21
352.6  679.94  108.79  16.00
354.2  723.22  114.76  15.87
355.7  777.89  116.74  15.01
357.3  842.60  121.59  14.43
358.8  838.80  118.36  14.11
360.4  904.00  133.20  14.73
361.9  943.76  128.62  13.63
363.5  997.20  132.50  13.29
365.1  1040.25  133.62  12.84
366.6  1087.54  131.20  12.06
368.2  1161.70  135.19  11.64
369.7  1204.79  140.61  11.67
371.3  1287.37  147.07  11.42
372.8  1354.56  146.08  10.78
374.4  1435.13  147.30  10.26
375.9  1463.02  147.41  10.08
377.4  1512.41  156.55  10.35
379.0  1578.52  155.31  9.84
380.5  1618.77  154.28  9.53
382.1  1669.58  154.45  9.25
383.6  1726.52  156.11  9.04
385.2  1809.50  163.90  9.06
386.7  1900.67  160.64  8.45
388.3  1991.93  169.57  8.51
389.8  2077.97  170.56  8.21
391.3  2163.95  182.33  8.43
392.9  2236.17  189.29  8.46
394.4  2293.88  192.30  8.38
395.9  2364.42  206.82  8.75
397.5  2493.56  212.75  8.53
399.0  2617.23  213.01  8.14
400.6  2691.33  218.10  8.10
402.1  2739.96  209.50  7.65
403.6  2797.88  212.90  7.61
405.1  2865.39  212.66  7.42
406.7  2979.20  220.12  7.39
408.2  3089.54  228.99  7.41
409.7  3183.04  241.92  7.60
411.3  3295.62  249.39  7.57
412.8  3391.47  256.91  7.58
414.3  3507.27  267.27  7.62
415.8  3622.50  277.67  7.67
417.4  3739.34  290.78  7.78
418.9  3830.42  291.12  7.60
420.4  3913.23  301.76  7.71
421.9  3978.48  305.89  7.69
423.5  4044.22  307.91  7.61
425.0  4110.68  317.65  7.73
426.5  4198.95  318.77  7.59
428.0  4314.36  328.13  7.61
429.5  4445.73  334.17  7.52
431.1  4599.50  343.40  7.47
432.6  4769.72  355.79  7.46
434.1  4937.63  368.06  7.45
435.6  5085.18  377.19  7.42
437.1  5233.80  390.00  7.45
438.6  5364.45  402.69  7.51
440.1  5501.44  412.89  7.51
441.6  5653.06  426.67  7.55
443.1  5799.60  437.67  7.55
444.7  5941.01  451.00  7.59
446.2  6051.88  464.22  7.67
447.7  6161.82  478.68  7.77
449.2  6292.08  489.89  7.79
450.7  6396.00  501.14  7.84
452.2  6529.70  508.54  7.79
453.7  6647.26  521.26  7.84
455.2  6815.62  532.28  7.81
456.7  7013.60  549.12  7.83
458.2  7232.90  564.09  7.80
459.7  7456.75  581.70  7.80
461.2  7667.16  600.57  7.83
462.7  7858.10  612.42  7.79
464.2  8041.02  629.76  7.83
465.7  8240.35  644.11  7.82
467.2  8402.63  659.89  7.85
468.7  8584.00  677.60  7.89
470.2  8698.25  692.24  7.96
471.7  8877.75  706.80  7.96
473.2  9159.71  736.88  8.04
474.6  9386.40  746.16  7.95
476.1  9450.96  747.37  7.91
477.6  9499.75  748.81  7.88
479.1  9557.87  750.49  7.85
480.6  9632.82  756.82  7.86
482.1  9760.73  768.69  7.88
483.6  9935.74  783.87  7.89
485.1  10133.78  797.82  7.87
486.6  10366.07  821.11  7.92
488.0  10621.00  844.35  7.95
489.5  10873.80  870.59  8.01
491.0  11134.31  895.91  8.05
492.5  11404.80  927.50  8.13
494.0  11683.71  964.87  8.26
495.4  11917.95  997.70  8.37
496.9  12154.26  1036.29  8.53
498.4  12387.41  1077.11  8.70
499.9  12623.63  1117.29  8.85
501.4  12839.71  1165.89  9.08
502.8  13042.06  1214.28  9.31
504.3  13226.40  1267.68  9.58
505.8  13406.54  1325.30  9.89
507.2  13518.16  1382.18  10.22
508.7  13603.31  1439.03  10.58
510.2  13672.60  1500.98  10.98
511.6  13715.26  1567.57  11.43
513.1  13806.21  1641.86  11.89
514.6  13898.29  1724.65  12.41
516.0  13992.63  1810.31  12.94
517.5  14151.40  1909.46  13.49
519.0  14339.95  2014.29  14.05
520.5  14520.56  2126.31  14.64
521.9  14760.83  2244.82  15.21
523.4  15031.28  2371.02  15.77
524.8  15295.25  2500.92  16.35
526.3  15594.01  2628.90  16.86
527.8  15909.50  2752.60  17.30
529.2  16189.50  2867.03  17.71
530.7  16509.28  2982.00  18.06
532.1  16791.25  3083.39  18.36
533.6  17121.20  3185.47  18.61
535.0  17454.94  3278.12  18.78
536.5  17789.22  3367.53  18.93
538.0  18136.88  3455.03  19.05
539.4  18461.69  3536.89  19.16
540.9  18864.39  3630.39  19.24
542.3  19206.33  3724.32  19.39
543.8  19460.81  3798.01  19.52
545.2  19544.37  3848.85  19.69
546.6  19566.05  3877.87  19.82
548.1  19604.97  3907.84  19.93
549.5  19640.65  3933.00  20.02
551.0  19664.79  3951.93  20.10
552.4  19724.92  3975.97  20.16
553.9  19761.60  3987.88  20.18
555.3  19812.20  3996.48  20.17
556.8  19934.49  4006.08  20.10
558.2  20047.50  4008.83  20.00
559.6  20200.16  4011.83  19.86
561.1  20397.00  4017.22  19.70
562.5  20617.77  4021.85  19.51
564.0  20901.40  4032.66  19.29
565.4  21161.13  4029.17  19.04
566.8  21482.31  4032.39  18.77
568.3  21793.28  4027.07  18.48
569.7  22118.60  4018.92  18.17
571.1  22425.71  4009.09  17.88
572.6  22741.56  3995.57  17.57
574.0  23030.70  3982.00  17.29
575.4  23309.44  3967.88  17.02
576.9  23581.06  3956.34  16.78
578.3  23822.01  3940.61  16.54
579.7  24048.22  3928.89  16.34
581.1  24227.75  3907.51  16.13
582.6  24429.78  3902.08  15.97
584.0  24600.48  3880.17  15.77
585.4  24853.74  3881.51  15.62
586.8  25196.68  3898.70  15.47
588.3  25573.86  3924.33  15.35
589.7  25896.78  3942.12  15.22
591.1  26104.75  3944.29  15.11
592.5  26211.06  3937.06  15.02
594.0  26269.26  3917.86  14.91
595.4  26286.44  3894.65  14.82
596.8  26295.56  3872.44  14.73
598.2  26315.92  3850.61  14.63
599.6  26317.98  3828.40  14.55
601.0  26398.05  3808.73  14.43
602.4  26470.93  3785.94  14.30
603.9  26597.64  3767.25  14.16
605.3  26727.57  3745.22  14.01
606.7  26857.80  3718.56  13.85
608.1  27088.39  3698.95  13.66
609.5  27333.21  3685.08  13.48
610.9  27623.29  3672.34  13.29
612.3  27891.32  3659.53  13.12
613.7  28252.28  3654.79  12.94
615.1  28513.62  3638.52  12.76
616.5  28776.05  3627.30  12.61
617.9  29165.50  3639.39  12.48
619.3  29543.24  3649.99  12.35
620.7  29990.55  3677.46  12.26
622.1  30437.05  3718.02  12.22
623.5  30934.60  3776.11  12.21
624.9  31494.75  3850.42  12.23
626.3  31867.36  3910.25  12.27
627.7  31569.69  3878.12  12.28
629.1  31287.59  3822.42  12.22
630.5  31184.65  3785.06  12.14
631.9  31222.21  3762.00  12.05
633.3  31256.33  3741.23  11.97
634.7  31400.48  3721.38  11.85
636.1  31461.82  3683.33  11.71
637.5  31554.77  3633.20  11.51
638.9  31702.82  3585.09  11.31
640.2  31825.04  3522.17  11.07
641.6  31863.78  3441.36  10.80
643.0  31847.61  3369.74  10.58
644.4  31829.55  3349.17  10.52
645.8  31751.71  3341.76  10.52
647.2  31867.94  3335.16  10.47
648.5  31926.34  3309.47  10.37
649.9  31776.23  3254.60  10.24
651.3  31648.05  3186.82  10.07
652.7  31449.15  3118.82  9.92
654.1  31244.46  3044.17  9.74
655.5  31005.95  2963.21  9.56
656.8  30780.41  2884.70  9.37
658.2  30925.42  2839.46  9.18
659.6  31264.45  2812.08  8.99
660.9  31536.04  2769.70  8.78
662.3  31822.64  2730.95  8.58
663.7  32096.40  2698.36  8.41
665.0  32332.90  2669.49  8.26
666.4  32562.99  2642.93  8.12
667.8  32863.56  2633.96  8.01
669.1  33114.69  2624.42  7.93
670.5  33405.09  2628.29  7.87
671.9  33586.56  2631.60  7.84
673.2  33844.75  2649.78  7.83
674.6  34082.18  2674.79  7.85
676.0  34372.41  2711.66  7.89
677.3  34659.68  2762.60  7.97
678.7  34979.63  2822.85  8.07
680.0  35399.92  2913.80  8.23
681.4  35845.89  3026.44  8.44
682.8  36270.33  3155.88  8.70
684.1  36705.24  3314.06  9.03
685.5  37104.21  3506.05  9.45
686.8  37507.62  3733.95  9.96
688.2  37862.83  3993.32  10.55
689.5  38000.96  4285.96  11.28
690.9  38124.79  4610.74  12.09
692.2  38229.60  4985.76  13.04
693.6  38334.37  5397.01  14.08
694.9  38335.34  5840.21  15.23
696.2  38393.33  6320.40  16.46
697.6  38453.39  6832.91  17.77
698.9  38522.88  7364.19  19.12
700.3  38613.54  7905.69  20.47
701.6  38716.02  8462.79  21.86
703.0  38828.83  9019.07  23.23
704.3  38882.19  9553.10  24.57
705.6  38895.39  10082.32  25.92
707.0  38949.12  10592.67  27.20
708.3  38885.46  11075.02  28.48
709.6  38817.35  11533.09  29.71
711.0  38702.88  11962.29  30.91
712.3  38573.15  12385.12  32.11
713.6  38531.64  12800.37  33.22
714.9  38462.14  13194.19  34.30
716.3  38461.08  13604.28  35.37
717.6  38479.84  14011.75  36.41
718.9  38424.85  14360.89  37.37
720.2  38251.08  14647.86  38.29
721.6  38113.53  14926.88  39.16
722.9  37945.16  15174.52  39.99
724.2  37714.27  15386.93  40.80
725.5  37534.96  15611.85  41.59
726.8  37360.68  15799.31  42.29
728.1  37271.09  16007.67  42.95
729.5  37167.13  16202.53  43.59
730.8  37093.13  16397.63  44.21
732.1  36996.92  16556.66  44.75
733.4  36936.39  16727.14  45.29
734.7  36864.47  16863.83  45.75
736.0  36851.62  17008.03  46.15
737.3  36774.45  17132.66  46.59
738.6  36845.76  17297.13  46.94
739.9  37000.34  17507.35  47.32
741.2  37119.81  17673.66  47.61
742.5  37372.03  17885.40  47.86
743.8  37768.50  18178.55  48.13
745.1  38387.22  18580.25  48.40
746.4  39127.73  19006.81  48.58
747.7  39918.22  19440.48  48.70
749.0  40672.12  19843.75  48.79
750.3  41122.66  20065.13  48.79
751.6  41047.35  20060.92  48.87
752.9  40630.59  19925.18  49.04
754.2  40176.47  19767.83  49.20
755.4  39652.21  19604.31  49.44
756.7  39478.17  19580.29  49.60
758.0  39495.60  19640.12  49.73
759.3  39730.28  19803.73  49.85
760.6  40061.56  20013.84  49.96
761.9  40384.10  20223.43  50.08
763.1  40567.56  20336.83  50.13
764.4  40796.65  20493.44  50.23
765.7  40953.25  20614.53  50.34
767.0  41079.80  20696.55  50.38
768.2  41207.04  20771.07  50.41
769.5  41279.98  20830.35  50.46
770.8  41469.61  20921.93  50.45
772.0  41501.32  20952.37  50.49
773.3  41583.65  21006.71  50.52
774.6  41708.58  21090.43  50.57
775.8  41815.15  21149.27  50.58
777.1  41846.51  21158.12  50.56
778.4  41799.94  21134.60  50.56
779.6  41775.90  21128.20  50.58
780.9  41704.00  21089.07  50.57
782.1  41523.21  21039.08  50.67
783.4  41558.40  21038.51  50.62
784.6  41567.36  21079.86  50.71
785.9  41861.56  21251.60  50.77
787.1  42409.87  21545.29  50.80
788.4  42854.47  21709.91  50.66
789.6  42849.18  21599.69  50.41
790.9  42483.96  21352.65  50.26
792.1  42011.92  21146.02  50.33
793.4  41570.15  20931.08  50.35
794.6  41283.15  20762.94  50.29
795.8  41024.39  20648.62  50.33
797.1  40758.68  20515.52  50.33
798.3  40551.64  20434.48  50.39
799.5  40444.72  20375.37  50.38
800.8  40323.21  20315.50  50.38
802.0  40187.32  20244.18  50.37
803.2  40033.64  20161.61  50.36
804.5  39942.72  20117.89  50.37
805.7  39829.66  20041.31  50.32
806.9  39715.93  19986.02  50.32
808.1  39632.97  19961.60  50.37
809.4  39553.39  19932.94  50.40
810.6  39489.45  19901.09  50.40
811.8  39474.39  19904.40  50.42
813.0  39504.71  19911.16  50.40
814.2  39525.61  19953.19  50.48
815.4  39644.33  20009.42  50.47
816.6  39709.73  20042.79  50.47
817.9  39791.57  20057.43  50.41
819.1  39719.87  20030.46  50.43
820.3  39621.11  19981.30  50.43
821.5  39546.25  19943.10  50.43
822.7  39480.04  19925.65  50.47
823.9  39499.25  19943.86  50.49
825.1  39541.96  19959.40  50.48
826.3  39583.35  19994.27  50.51
827.5  39640.56  20029.01  50.53
828.7  39708.48  20067.65  50.54
829.9  39767.03  20104.37  50.56
831.0  39870.82  20172.66  50.60
832.2  39993.87  20253.33  50.64
833.4  40076.64  20298.55  50.65
834.6  40148.44  20349.38  50.69
835.8  40238.10  20405.70  50.71
837.0  40328.28  20495.80  50.82
838.1  40500.72  20593.21  50.85
839.3  40601.19  20657.24  50.88
840.5  40716.87  20724.40  50.90
841.7  40854.11  20838.48  51.01
842.9  40980.73  20959.57  51.14
844.0  41100.82  21042.71  51.20
845.2  41245.09  21139.36  51.25
846.4  41368.25  21204.18  51.26
847.5  41564.18  21339.65  51.34
848.7  41743.64  21427.39  51.33
849.9  41936.76  21516.31  51.31
851.0  42020.98  21532.38  51.24
852.2  42107.61  21565.25  51.21
853.3  42066.96  21554.64  51.24
854.5  42098.11  21546.22  51.18
855.6  42095.43  21560.07  51.22
856.8  42111.00  21583.23  51.25
857.9  42111.88  21579.86  51.24
859.1  42240.60  21642.13  51.24
860.2  42245.56  21659.30  51.27
861.4  42273.83  21685.16  51.30
862.5  42309.54  21718.72  51.33
863.7  42384.63  21740.75  51.29
864.8  42387.10  21748.16  51.31
865.9  42333.82  21747.64  51.37
867.1  42372.33  21763.18  51.36
868.2  42368.54  21765.03  51.37
869.3  42393.50  21780.20  51.38
870.5  42342.80  21739.79  51.34
871.6  42318.48  21761.86  51.42
872.7  42385.23  21792.08  51.41
873.9  42404.90  21794.42  51.40
875.0  42391.36  21773.09  51.36
876.1  42363.75  21780.62  51.41
877.2  42397.32  21796.28  51.41
878.3  42381.77  21782.68  51.40
879.4  42397.70  21800.36  51.42
880.5  42451.56  21813.94  51.39
881.7  42410.55  21811.14  51.43
882.8  42454.72  21831.56  51.42
883.9  42482.63  21809.68  51.34
885.0  42446.04  21750.64  51.24
886.1  42420.10  21687.55  51.13
887.2  42295.80  21592.71  51.05
888.3  42201.80  21520.85  51.00
889.4  42117.30  21465.63  50.97
890.5  42026.34  21412.69  50.95
891.6  41981.69  21383.33  50.93
892.7  41962.31  21346.07  50.87
893.8  41981.79  21390.94  50.95
894.9  41952.35  21384.89  50.97
896.0  41968.71  21370.11  50.92
897.0  41952.48  21354.16  50.90
898.1  41951.64  21379.83  50.96
899.2  41983.30  21372.41  50.91
900.3  41907.57  21341.59  50.93
901.4  41820.39  21296.10  50.92
902.4  41828.99  21322.65  50.98
903.5  41775.96  21272.72  50.92
904.6  41798.96  21269.28  50.88
905.7  41805.42  21270.20  50.88
906.7  41815.90  21263.80  50.85
907.8  41839.20  21268.26  50.83
908.9  41746.38  21241.16  50.88
909.9  41734.69  21210.66  50.82
911.0  41681.88  21184.20  50.82
912.1  41602.05  21162.30  50.87
913.1  41535.52  21123.44  50.86
914.2  41457.24  21075.42  50.84
915.2  41368.59  21048.26  50.88
916.3  41436.15  21058.10  50.82
917.3  41410.15  21045.53  50.82
918.4  41310.50  20997.13  50.83
919.4  41328.17  20969.12  50.74
920.5  41309.67  20972.66  50.77
921.5  41323.66  20953.18  50.71
922.6  41255.80  20941.42  50.76
923.6  41303.54  20958.63  50.74
924.7  41344.50  20958.20  50.69
925.7  41333.16  20954.01  50.70
926.7  41356.90  20960.01  50.68
927.8  41415.30  20976.96  50.65
928.8  41570.85  21019.29  50.56
929.9  41658.93  21098.15  50.64
930.9  41879.39  21175.66  50.56
931.9  42070.56  21276.69  50.57
932.9  42412.10  21414.66  50.49
934.0  42452.50  21443.02  50.51
935.0  42440.57  21456.72  50.56
936.0  42488.02  21450.50  50.49
937.0  42429.47  21422.10  50.49
938.1  42380.86  21399.07  50.49
939.1  42337.65  21416.79  50.59
940.1  42429.30  21470.00  50.60
941.1  42615.86  21572.02  50.62
942.1  42903.92  21694.00  50.56
943.1  43057.09  21761.48  50.54
944.1  43342.63  21861.18  50.44
945.2  43356.60  21904.85  50.52
946.2  43482.48  21950.56  50.48
947.2  43549.00  22011.68  50.54
948.2  43743.16  22091.40  50.50
949.2  43840.88  22101.84  50.41
950.2  43906.25  22116.57  50.37
951.2  44010.96  22175.89  50.39
952.2  44061.91  22186.40  50.35
953.2  44318.14  22283.78  50.28
954.2  44380.80  22319.04  50.29
955.2  44428.35  22330.93  50.26
956.2  44460.20  22365.78  50.31
957.2  44542.35  22357.39  50.19
958.2  44649.94  22406.50  50.18
959.2  44705.25  22435.32  50.18
960.1  44813.66  22459.59  50.12
961.1  44928.76  22532.27  50.15
962.1  44958.75  22548.25  50.15
963.1  44986.01  22567.19  50.16
964.1  45106.16  22624.68  50.16
965.1  45270.70  22727.42  50.20
966.1  45207.41  22733.54  50.29
967.0  45355.66  22784.37  50.23
968.0  45441.48  22788.64  50.15
969.0  45453.60  22880.88  50.34
970.0  45557.64  22920.08  50.31
971.0  45615.57  22949.05  50.31
971.9  45699.86  22975.11  50.27
972.9  45781.93  23033.57  50.31
973.9  45829.88  23063.00  50.32
974.9  45973.78  23043.45  50.12
975.8  45979.65  23080.65  50.20
976.8  46106.16  23138.07  50.18
977.8  46097.80  23205.00  50.34
978.8  46103.70  23308.36  50.56
979.7  46387.55  23327.01  50.29
980.7  46405.76  23424.24  50.48
981.7  46694.84  23524.23  50.38
982.6  46857.76  23774.55  50.74
983.6  47433.79  23983.10  50.56
984.6  47818.98  24287.86  50.79
985.5  48063.24  24460.22  50.89
986.5  48770.77  24946.60  51.15
987.5  50043.63  25577.86  51.11
988.4  50895.90  25750.27  50.59
989.4  52431.75  26282.46  50.13
990.4  53425.02  26800.09  50.16
991.3  55387.31  27244.88  49.19
992.3  55950.90  27388.55  48.95
993.2  58118.31  28243.85  48.60
994.2  59457.94  28472.34  47.89
995.2  60710.63  29245.55  48.17
996.1  61737.77  29340.72  47.52
997.1  61885.85  29097.21  47.02
998.0  61668.00  28504.32  46.22
999.0  61787.86  28762.07  46.55
1000.0  62252.49  28151.12  45.22
1000.9  62564.91  28646.07  45.79
1001.9  61626.12  28866.97  46.84
1002.8  61885.09  27820.42  44.95
1003.8  61970.58  27697.65  44.69
1004.8  62064.96  27807.54  44.80
961.5  55881.62  25974.96  46.48
965.5  54589.44  25588.80  46.88
969.5  52393.79  25069.11  47.85
973.4  50126.74  24327.09  48.53
977.4  48345.52  23655.93  48.93
981.4  47464.01  23416.34  49.33
985.3  47176.98  23326.25  49.44
989.3  47304.75  23332.28  49.32
993.3  47508.66  23310.81  49.07
997.2  47541.75  23198.54  48.80
1001.2  47520.33  23127.43  48.67
1005.2  47455.76  23101.70  48.68
1009.1  47529.68  23172.45  48.75
1013.1  47663.39  23288.88  48.86
1017.1  47785.75  23368.73  48.90
1021.0  47816.50  23368.11  48.87
1025.0  47819.30  23356.09  48.84
1029.0  47652.00  23275.48  48.84
1032.9  47495.63  23205.04  48.86
1036.9  47497.16  23220.72  48.89
1040.9  47608.97  23307.87  48.96
1044.8  47827.54  23436.84  49.00
1048.8  48004.98  23548.13  49.05
1052.7  48133.54  23631.09  49.09
1056.7  48188.20  23653.10  49.08
1060.7  48194.60  23667.06  49.11
1064.6  48198.22  23683.13  49.14
1068.6  48113.17  23648.51  49.15
1072.5  48026.55  23612.49  49.17
1076.5  47975.49  23584.51  49.16
1080.4  47966.69  23576.70  49.15
1084.4  48069.59  23607.08  49.11
1088.3  48170.15  23640.54  49.08
1092.3  48152.58  23614.29  49.04
1096.2  48142.77  23583.16  48.99
1100.2  48183.64  23598.83  48.98
1104.1  48079.94  23541.87  48.96
1108.1  48035.13  23488.06  48.90
1112.0  47943.86  23415.90  48.84
1116.0  47742.57  23287.77  48.78
1119.9  47581.47  23157.80  48.67
1123.9  47666.30  23137.63  48.54
1127.8  47639.04  23048.96  48.38
1131.8  47617.38  22946.36  48.19
1135.7  47659.94  22835.16  47.91
1139.6  47675.62  22665.13  47.54
1143.6  47638.82  22478.63  47.19
1147.5  47616.88  22307.14  46.85
1151.4  47500.80  22092.82  46.51
1155.4  47513.75  21997.85  46.30
1159.3  47522.52  21950.53  46.19
1163.2  47363.89  21826.79  46.08
1167.2  47347.50  21785.16  46.01
1171.1  47369.57  21761.74  45.94
1175.0  47314.40  21705.48  45.88
1179.0  47268.08  21675.24  45.86
1182.9  47358.68  21699.82  45.82
1186.8  47350.70  21667.41  45.76
1190.7  47139.70  21542.75  45.70
1194.7  46883.87  21402.09  45.65
1198.6  46652.76  21291.27  45.64
1202.5  46480.48  21223.68  45.66
1206.4  46340.80  21179.23  45.70
1210.3  46236.01  21158.95  45.76
1214.2  46114.66  21130.83  45.82
1218.2  45952.68  21087.24  45.89
1222.1  45800.88  21056.07  45.97
1226.0  45686.61  21021.69  46.01
1229.9  45598.02  20993.30  46.04
1233.8  45484.04  20963.09  46.09
1237.7  45416.66  20941.60  46.11
1241.6  45332.53  20902.93  46.11
1245.5  45166.97  20826.77  46.11
1249.4  45023.84  20771.33  46.13
1253.3  44894.25  20730.55  46.18
1257.2  44816.00  20700.08  46.19
1261.1  44716.86  20647.23  46.17
1265.0  44587.73  20582.22  46.16
1268.9  44400.64  20479.88  46.13
1272.8  44460.00  20482.95  46.07
1276.7  44653.74  20555.71  46.03
1280.6  44733.81  20587.31  46.02
1284.5  44649.07  20524.95  45.97
1288.4  44631.63  20478.30  45.88
1292.3  44511.50  20368.33  45.76
1296.2  44360.33  20243.73  45.63
1300.1  44197.71  20100.18  45.48
1303.9  43963.66  19895.62  45.25
1307.8  43715.49  19691.57  45.04
1311.7  43464.03  19476.55  44.81
1315.6  43214.30  19250.58  44.55
1319.5  42962.15  19007.76  44.24
1323.3  42734.84  18753.96  43.88
1327.2  42525.95  18501.02  43.51
1331.1  42285.13  18232.44  43.12
1335.0  41985.32  17928.80  42.70
1338.8  41775.29  17656.27  42.26
1342.7  41609.18  17390.09  41.79
1346.5  41242.98  17022.20  41.27
1350.4  40931.78  16672.16  40.73
1354.3  40517.39  16281.35  40.18
1358.1  40047.65  15899.22  39.70
1362.0  39764.09  15628.58  39.30
1365.8  39670.89  15441.63  38.92
1369.7  39786.92  15296.01  38.44
1373.5  39741.56  14956.45  37.63
1377.4  39487.75  14409.55  36.49
1381.2  39276.49  13796.15  35.13
1385.1  39242.56  13189.08  33.61
1389.0  39129.70  12493.50  31.93
1392.8  38925.66  11702.96  30.06
1396.6  38773.68  10924.01  28.17
1400.5  38560.99  10186.09  26.42
1404.3  38397.74  9563.24  24.91
1408.2  38363.03  9066.58  23.63
1412.0  38325.01  8660.55  22.60
1415.8  38359.09  8360.87  21.80
1419.6  38319.36  8110.13  21.16
1423.5  38299.37  7923.79  20.69
1427.3  38266.05  7780.86  20.33
1431.1  38248.58  7681.80  20.08
1434.9  38159.15  7598.59  19.91
1438.8  38104.90  7546.13  19.80
1442.6  38084.31  7515.62  19.73
1446.4  37958.74  7475.88  19.69
1450.2  37871.04  7460.07  19.70
1454.0  37772.76  7455.60  19.74
1457.8  37752.26  7480.44  19.81
1461.6  37732.17  7523.97  19.94
1465.4  37609.21  7567.23  20.12
1469.2  37426.03  7624.29  20.37
1473.0  37290.43  7710.68  20.68
1476.8  37245.30  7835.56  21.04
1480.7  37186.44  7975.74  21.45
1484.4  37061.40  8116.04  21.90
1488.2  36961.08  8266.52  22.37
1492.0  36836.53  8416.83  22.85
1495.8  36720.78  8563.10  23.32
1499.6  36605.30  8698.94  23.76
1503.4  36479.87  8833.97  24.22
1507.2  36356.05  8966.79  24.66
1510.9  36204.04  9083.81  25.09
1514.7  36047.88  9185.36  25.48
1518.5  35919.58  9288.92  25.86
1522.3  35781.38  9389.14  26.24
1526.0  35674.52  9497.01  26.62
1529.8  35609.17  9623.35  27.02
1533.6  35484.33  9726.50  27.41
1537.3  35352.32  9842.50  27.84
1541.1  35225.58  9978.06  28.33
1544.8  35097.60  10096.00  28.77
1548.6  34949.35  10182.54  29.14
1552.4  34850.72  10265.80  29.46
1556.1  34790.76  10338.90  29.72
1559.9  34705.82  10391.56  29.94
1563.6  34578.39  10439.13  30.19
1567.3  34459.02  10504.85  30.49
1571.1  34243.92  10534.26  30.76
1574.8  34100.68  10584.75  31.04
1578.6  34000.34  10648.09  31.32
1582.3  33854.52  10680.42  31.55
1586.0  33716.51  10710.12  31.77
1589.8  33582.95  10737.17  31.97
1593.5  33431.04  10751.35  32.16
1597.2  33294.67  10772.49  32.35
1600.9  33154.19  10783.06  32.52
1604.7  33000.40  10790.27  32.70
1608.4  32856.34  10806.95  32.89
1612.1  32695.22  10803.09  33.04
1615.8  32545.96  10803.74  33.20
1619.5  32465.11  10832.95  33.37
1623.2  32316.22  10832.42  33.52
1626.9  32130.25  10815.84  33.66
1630.6  31953.68  10800.46  33.80
1634.3  31816.04  10785.89  33.90
1638.0  31668.49  10753.86  33.96
1641.7  31487.82  10704.11  33.99
1645.4  31299.16  10649.31  34.02
1649.1  31105.38  10593.07  34.06
1652.8  30949.76  10543.12  34.07
1656.4  30780.36  10481.26  34.05
1660.1  30613.88  10424.30  34.05
1663.8  30416.03  10363.09  34.07
1667.5  30257.50  10320.92  34.11
1671.1  30134.40  10277.62  34.11
1674.8  29937.06  10200.65  34.07
1678.5  29873.87  10172.18  34.05
1682.1  29892.23  10165.40  34.01
1685.8  29901.92  10148.49  33.94
1689.5  29795.07  10086.07  33.85
1693.1  29653.44  10010.88  33.76
1696.8  29511.75  9929.88  33.65
1700.4  29358.15  9847.19  33.54
1704.0  29237.42  9774.51  33.43
1707.7  28983.16  9649.91  33.29
1711.3  28689.26  9509.01  33.14
1715.0  28479.20  9398.22  33.00
1718.6  28311.14  9298.08  32.84
1722.2  28171.19  9208.99  32.69
1725.9  28024.58  9121.14  32.55
1729.5  27888.80  9039.04  32.41
1733.1  27770.82  8962.67  32.27
1736.7  27655.67  8884.30  32.12
1740.3  27487.42  8783.27  31.95
1744.0  27395.86  8697.48  31.75
1747.5  27255.01  8590.07  31.52
1751.2  27041.09  8457.86  31.28
1754.8  26881.34  8347.50  31.05
1758.4  26750.86  8251.03  30.84
1762.0  26572.85  8140.92  30.64
1765.5  26446.23  8050.13  30.44
1769.1  26402.40  7994.40  30.28
1772.7  26328.38  7927.16  30.11
1776.3  26208.92  7847.98  29.94
1779.9  26081.92  7780.20  29.83
1783.5  26027.60  7736.77  29.73
1787.0  25897.14  7678.59  29.65
1790.6  25747.79  7615.86  29.58
1794.2  25651.68  7571.59  29.52
1797.8  25552.23  7534.63  29.49
1801.3  25471.95  7501.58  29.45
1804.9  25318.13  7453.25  29.44
1808.4  25235.40  7425.16  29.42
1812.0  25102.89  7374.85  29.38
1815.5  24947.72  7322.52  29.35
1819.1  24745.29  7263.21  29.35
1822.6  24588.72  7209.23  29.32
1826.2  24468.62  7157.97  29.25
1829.7  24298.19  7083.72  29.15
1833.2  24066.25  6987.94  29.04
1836.8  23846.10  6893.40  28.91
1840.3  23701.28  6824.04  28.79
1843.8  23605.26  6763.96  28.65
1847.3  23552.23  6691.65  28.41
1850.8  23482.37  6582.91  28.03
1854.3  23328.90  6446.42  27.63
1857.8  23249.20  6285.07  27.03
1861.3  23245.10  6064.80  26.09
1864.8  23154.55  5801.46  25.06
1868.3  22923.75  5452.44  23.79
1871.8  22725.12  5079.04  22.35
1875.3  22663.55  4736.40  20.90
1878.8  22668.35  4387.76  19.36
1882.3  22613.87  4028.77  17.82
1885.8  22446.65  3678.20  16.39
1889.3  22245.45  3369.76  15.15
1892.7  22073.02  3125.46  14.16
1896.2  21956.57  2939.12  13.39
1899.7  21800.31  2828.80  12.98
1903.1  21719.54  2837.30  13.06
1906.6  21807.87  2931.25  13.44
1910.0  22098.88  3175.84  14.37
1913.5  22634.73  3600.77  15.91
1917.0  23151.98  4184.83  18.08
1920.4  23436.08  4776.59  20.38
1923.8  23677.97  5075.14  21.43
1871.2  20787.15  4021.60  19.35
1873.9  20907.54  3840.74  18.37
1876.7  21048.38  3667.83  17.43
1879.5  21252.88  3420.76  16.10
1882.3  20993.42  3076.39  14.65
1885.1  20851.78  2798.63  13.42
1887.8  20921.79  2550.97  12.19
1890.6  20723.54  2357.19  11.37
1893.4  20650.67  2187.78  10.59
1896.2  20581.86  1996.53  9.70
1898.9  20516.13  1897.02  9.25
1901.7  20380.18  1792.89  8.80
1904.5  20546.36  1724.54  8.39
1907.2  20463.00  1691.00  8.26
1910.0  20358.58  1632.78  8.02
1912.7  20364.96  1590.66  7.81
1915.5  20273.08  1584.36  7.82
1918.2  20210.43  1573.28  7.78
1921.0  20079.87  1549.54  7.72
1923.7  20126.73  1556.34  7.73
1926.5  20096.89  1553.43  7.73
1929.2  20080.15  1543.48  7.69
1932.0  20066.00  1557.88  7.76
1934.7  20016.92  1560.21  7.79
1937.4  19925.11  1551.87  7.79
1940.2  19881.39  1571.50  7.90
1942.9  19959.98  1590.51  7.97
1945.6  19965.22  1604.63  8.04
1948.3  19894.11  1627.51  8.18
1951.1  19862.99  1636.44  8.24
1953.8  19866.00  1650.00  8.31
1956.5  19752.03  1675.21  8.48
1959.2  19805.76  1714.27  8.66
1961.9  19837.86  1743.30  8.79
1964.6  19745.08  1762.19  8.92
1967.3  19784.70  1778.02  8.99
1970.0  19621.84  1774.03  9.04
1972.8  19538.55  1815.01  9.29
1975.5  19602.81  1865.26  9.52
1978.2  19540.64  1878.53  9.61
1980.9  19419.73  1898.64  9.78
1983.5  19352.05  1929.20  9.97
1986.2  19366.05  1954.55  10.09
1988.9  19348.59  1993.35  10.30
1991.6  19202.00  2015.12  10.49
1994.3  19065.89  2022.80  10.61
1997.0  19096.32  2081.76  10.90
1999.7  19065.00  2114.50  11.09
2002.3  19034.90  2129.69  11.19
2005.0  18965.86  2175.72  11.47
2007.7  18877.00  2197.78  11.64
2010.4  18811.60  2198.35  11.69
2013.0  18774.16  2236.17  11.91
2015.7  18678.28  2270.49  12.16
2018.4  18548.96  2281.63  12.30
2021.0  18504.50  2295.00  12.40
2023.7  18401.60  2314.10  12.58
2026.4  18333.68  2347.22  12.80
2029.0  18267.40  2372.11  12.99
2031.7  18144.97  2375.39  13.09
2034.3  18142.15  2393.23  13.19
2037.0  18035.71  2410.58  13.37
2039.6  17974.39  2427.90  13.51
2042.3  17908.74  2445.12  13.65
2044.9  17825.78  2464.66  13.83
2047.5  17820.17  2483.36  13.94
2050.2  17715.60  2478.00  13.99
2052.8  17679.20  2487.33  14.07
2055.4  17538.43  2496.28  14.23
2058.1  17416.00  2509.73  14.41
2060.7  17404.47  2530.41  14.54
2063.3  17299.63  2539.58  14.68
2065.9  17230.17  2547.86  14.79
2068.6  17165.96  2552.52  14.87
2071.2  17119.44  2577.96  15.06
2073.8  17041.85  2585.66  15.17
2076.4  16999.98  2597.10  15.28
2079.0  17011.74  2622.67  15.42
2081.6  16984.09  2646.41  15.58
2084.2  16930.00  2655.19  15.68
2086.8  16834.24  2647.32  15.73
2089.4  16742.01  2668.36  15.94
2092.1  16637.33  2682.22  16.12
2094.7  16574.28  2674.34  16.14
2097.2  16549.50  2679.39  16.19
2099.8  16541.98  2717.62  16.43
2102.4  16400.35  2709.70  16.52
2105.0  16267.80  2693.25  16.56
2107.6  16238.35  2721.11  16.76
2110.2  16217.39  2733.69  16.86
2112.8  16200.74  2725.89  16.83
2115.3  16182.65  2751.00  17.00
2117.9  16188.40  2773.99  17.14
2120.5  16181.17  2767.31  17.10
2123.1  16113.83  2778.75  17.24
2125.6  16056.05  2791.68  17.39
2128.2  15953.26  2791.07  17.50
2130.8  15859.35  2798.25  17.64
2133.3  15825.33  2787.64  17.62
2135.9  15723.21  2773.01  17.64
2138.4  15584.92  2781.65  17.85
2141.0  15487.96  2770.85  17.89
2143.6  15482.13  2775.31  17.93
2146.1  15358.67  2751.26  17.91
2148.7  15182.57  2730.12  17.98
2151.2  15188.80  2746.58  18.08
2153.8  15199.37  2756.92  18.14
2156.3  15064.95  2745.62  18.23
2158.8  14994.07  2734.79  18.24
2161.4  14983.43  2736.05  18.26
2163.9  14894.98  2718.36  18.25
2166.4  14806.99  2708.31  18.29
2169.0  14777.42  2720.13  18.41
2171.5  14688.72  2714.22  18.48
2174.0  14586.43  2700.31  18.51
2176.5  14576.25  2698.97  18.52
2179.1  14537.32  2700.46  18.58
2181.6  14435.75  2682.75  18.58
2184.1  14405.16  2681.65  18.62
2186.6  14458.30  2692.69  18.62
2189.1  14358.33  2671.79  18.61
2191.6  14308.00  2675.40  18.70
2194.1  14339.64  2685.02  18.72
2196.6  14340.73  2675.44  18.66
2199.2  14399.84  2698.81  18.74
2201.7  14323.09  2708.93  18.91
2204.1  14264.18  2687.67  18.84
2206.6  14278.44  2678.14  18.76
2209.1  14246.74  2669.69  18.74
2211.6  14236.93  2683.70  18.85
2214.1  14172.61  2702.99  19.07
2216.6  14103.21  2691.75  19.09
2219.1  14137.40  2668.96  18.88
2221.6  14080.86  2651.98  18.83
2224.0  14024.61  2637.79  18.81
2226.5  13983.38  2630.53  18.81
2229.0  13981.89  2641.82  18.89
2231.5  13918.22  2608.23  18.74
2233.9  13896.33  2577.10  18.55
2236.4  13868.98  2570.76  18.54
2238.9  13826.00  2554.92  18.48
2241.3  13828.76  2539.29  18.36
2243.8  13758.80  2514.67  18.28
2246.2  13610.98  2470.73  18.15
2248.7  13571.61  2446.41  18.03
2251.2  13563.12  2449.48  18.06
2253.6  13482.24  2425.60  17.99
2256.1  13474.56  2368.00  17.57
2258.5  13495.78  2377.99  17.62
2260.9  13407.16  2348.30  17.52
2263.4  13372.75  2297.88  17.18
2265.8  13367.17  2300.31  17.21
2268.3  13288.30  2276.93  17.13
2270.7  13342.05  2277.41  17.07
2273.1  13272.94  2230.70  16.81
2275.6  13194.24  2186.24  16.57
2278.0  13232.60  2197.10  16.60
2280.4  13249.81  2198.68  16.59
2282.8  13117.21  2150.07  16.39
2285.3  13103.68  2134.70  16.29
2287.7  13191.09  2152.96  16.32
2290.1  13097.39  2115.03  16.15
2292.5  13047.88  2079.41  15.94
2294.9  13056.31  2066.72  15.83
2297.3  12972.40  2061.88  15.89
2299.7  12875.52  2018.92  15.68
2302.1  12826.01  1973.33  15.39
2304.5  12696.88  1950.85  15.36
2306.9  12602.80  1910.35  15.16
2309.3  12519.08  1889.94  15.10
2311.7  12473.65  1877.46  15.05
2314.1  12315.17  1845.77  14.99
2316.5  12229.76  1832.10  14.98
2318.9  12290.12  1827.62  14.87
2321.3  12265.32  1794.64  14.63
2323.7  12235.57  1799.66  14.71
2326.1  12214.93  1806.78  14.79
2328.4  12270.09  1772.44  14.45
2330.8  12319.08  1780.51  14.45
2333.2  12235.57  1765.40  14.43
2335.6  12168.54  1713.26  14.08
2337.9  12202.83  1711.06  14.02
2340.3  12141.58  1696.13  13.97
2342.7  12039.09  1653.17  13.73
2345.0  12013.82  1642.04  13.67
2347.4  11993.50  1647.58  13.74
2349.7  11798.34  1590.49  13.48
2352.1  11775.76  1576.68  13.39
2354.4  11820.42  1586.09  13.42
2356.8  11728.38  1558.32  13.29
2359.2  11704.33  1555.67  13.29
2361.5  11645.74  1548.98  13.30
2363.8  11633.53  1532.69  13.17
2366.2  11660.03  1524.07  13.07
2368.5  11627.85  1502.62  12.92
2370.9  11603.83  1467.25  12.64
2373.2  11533.95  1468.91  12.74
2375.5  11398.48  1432.92  12.57
2377.9  11373.04  1422.20  12.51
2380.2  11408.35  1438.64  12.61
2382.5  11308.30  1373.91  12.15
2384.8  11261.28  1348.69  11.98
2387.2  11252.00  1368.99  12.17
2389.5  11242.29  1344.10  11.96
2391.8  11232.13  1302.41  11.60
2394.1  11132.13  1293.95  11.62
2396.4  11089.46  1296.67  11.69
2398.7  11160.99  1287.75  11.54
2401.0  11096.58  1280.76  11.54
2403.3  10926.12  1246.66  11.41
2405.6  10921.36  1217.93  11.15
2407.9  10891.74  1214.09  11.15
2410.2  10793.71  1203.20  11.15
2412.5  10752.81  1175.56  10.93
2414.8  10737.29  1160.51  10.81
2417.1  10694.97  1145.89  10.71
2419.4  10638.82  1128.83  10.61
2421.7  10597.44  1126.68  10.63
2424.0  10571.95  1097.17  10.38
2426.2  10576.95  1068.22  10.10
2428.5  10508.39  1085.27  10.33
2430.8  10485.80  1079.10  10.29
2433.1  10443.79  1012.30  9.69
2435.4  10361.94  1003.37  9.68
2437.6  10328.37  1007.10  9.75
2439.9  10224.92  971.40  9.50
2442.2  10193.49  967.02  9.49
2444.4  10223.13  962.96  9.42
2446.7  10173.28  955.81  9.40
2448.9  10197.11  951.41  9.33
2451.2  10173.72  917.84  9.02
2453.4  10028.37  895.96  8.93
2455.7  9998.26  906.17  9.06
2457.9  9908.42  889.30  8.98
2460.2  9870.17  865.16  8.77
2462.4  9896.64  852.80  8.62
2464.7  9834.69  841.11  8.55
2466.9  9751.98  815.34  8.36
2469.2  9722.50  818.85  8.42
2471.4  9624.29  822.82  8.55
2473.6  9553.77  792.24  8.29
2475.9  9536.85  803.77  8.43
2478.1  9427.70  776.54  8.24
2480.3  9377.37  730.97  7.80
2482.5  9321.43  757.72  8.13
2484.8  9240.44  740.30  8.01
2487.0  9258.33  723.38  7.81
2489.2  9302.30  728.71  7.83
2491.4  9183.58  745.45  8.12
2493.6  9147.34  731.58  8.00
2495.8  9177.35  710.01  7.74
2498.0  9103.79  724.19  7.95
2500.2  9132.70  679.62  7.44
2502.4  9403.92  719.28  7.65
2504.6  9512.07  748.07  7.86
2506.8  9585.80  714.39  7.45
