/*** Spectra Vista SIG Data ***/
name= AOHDB.sig
comm= Averaged Ref/Tar of files: AOHDB1,AOHDB2,AOHDB3
data=
346.4  509.60  87.48  17.17
347.9  540.69  89.73  16.60
349.5  587.60  91.31  15.54
351.1  632.32  95.89  15.16
352.6  689.43  99.09  14.37
354.2  733.04  103.19  14.08
355.7  791.36  110.46  13.96
357.3  853.00  116.05  13.60
358.8  856.28  116.50  13.61
360.4  925.10  123.58  13.36
361.9  965.82  126.30  13.08
363.5  1017.98  128.81  12.65
365.1  1061.06  132.00  12.44
366.6  1110.56  135.34  12.19
368.2  1180.72  136.99  11.60
369.7  1238.53  140.61  11.35
371.3  1318.10  146.19  11.09
372.8  1388.87  150.51  10.84
374.4  1466.28  157.76  10.76
375.9  1500.53  161.09  10.74
377.4  1552.53  163.71  10.54
379.0  1613.53  166.76  10.34
380.5  1659.80  169.88  10.23
382.1  1714.89  171.59  10.01
383.6  1771.88  172.18  9.72
385.2  1856.25  176.18  9.49
386.7  1945.79  183.75  9.44
388.3  2039.94  192.95  9.46
389.8  2122.80  198.74  9.36
391.3  2214.08  208.69  9.43
392.9  2288.33  215.84  9.43
394.4  2354.22  224.94  9.55
395.9  2427.22  233.41  9.62
397.5  2550.62  245.91  9.64
399.0  2669.76  251.73  9.43
400.6  2745.10  254.14  9.26
402.1  2796.72  255.07  9.12
403.6  2853.82  256.21  8.98
405.1  2922.52  259.12  8.87
406.7  3030.72  268.35  8.85
408.2  3137.80  276.51  8.81
409.7  3232.32  285.97  8.85
411.3  3343.05  295.75  8.85
412.8  3437.29  306.68  8.92
414.3  3549.69  317.68  8.95
415.8  3661.67  330.33  9.02
417.4  3782.35  340.20  8.99
418.9  3871.74  350.66  9.06
420.4  3954.77  355.76  9.00
421.9  4021.23  363.00  9.03
423.5  4094.81  369.71  9.03
425.0  4161.62  375.78  9.03
426.5  4254.13  384.13  9.03
428.0  4372.51  393.94  9.01
429.5  4502.35  405.01  9.00
431.1  4651.74  418.74  9.00
432.6  4819.07  434.48  9.02
434.1  4979.98  450.84  9.05
435.6  5123.24  462.85  9.03
437.1  5266.95  478.92  9.09
438.6  5394.58  492.04  9.12
440.1  5529.19  506.07  9.15
441.6  5674.42  520.78  9.18
443.1  5817.15  535.28  9.20
444.7  5954.71  551.42  9.26
446.2  6069.42  566.39  9.33
447.7  6179.08  578.64  9.36
449.2  6300.00  593.14  9.41
450.7  6402.24  603.75  9.43
452.2  6534.28  615.70  9.42
453.7  6659.06  627.17  9.42
455.2  6824.59  642.73  9.42
456.7  7018.88  663.29  9.45
458.2  7232.32  685.37  9.48
459.7  7447.42  707.00  9.49
461.2  7655.98  728.83  9.52
462.7  7843.78  749.89  9.56
464.2  8027.60  770.55  9.60
465.7  8224.08  791.68  9.63
467.2  8385.95  812.35  9.69
468.7  8573.33  834.53  9.73
470.2  8702.56  850.67  9.77
471.7  8869.83  872.89  9.84
473.2  9123.26  902.39  9.89
474.6  9341.89  920.13  9.85
476.1  9426.93  929.69  9.86
477.6  9488.00  939.21  9.90
479.1  9560.98  947.82  9.91
480.6  9641.27  958.94  9.95
482.1  9773.07  975.49  9.98
483.6  9944.90  994.20  10.00
485.1  10136.02  1016.45  10.03
486.6  10362.78  1041.66  10.05
488.0  10601.50  1068.17  10.08
489.5  10844.19  1097.77  10.12
491.0  11089.16  1126.49  10.16
492.5  11344.86  1157.54  10.20
494.0  11610.14  1189.41  10.24
495.4  11833.25  1218.47  10.30
496.9  12059.63  1249.83  10.36
498.4  12283.04  1280.54  10.43
499.9  12508.56  1312.40  10.49
501.4  12718.72  1341.67  10.55
502.8  12916.21  1375.34  10.65
504.3  13099.80  1405.08  10.73
505.8  13282.27  1435.93  10.81
507.2  13403.00  1462.85  10.91
508.7  13498.87  1485.41  11.00
510.2  13586.00  1509.89  11.11
511.6  13641.75  1529.24  11.21
513.1  13747.62  1552.85  11.30
514.6  13864.04  1580.18  11.40
516.0  13977.18  1605.44  11.49
517.5  14146.21  1638.43  11.58
519.0  14348.36  1673.53  11.66
520.5  14540.24  1710.30  11.76
521.9  14783.40  1752.25  11.85
523.4  15052.02  1796.29  11.93
524.8  15313.21  1842.72  12.03
526.3  15607.24  1892.09  12.12
527.8  15911.63  1942.67  12.21
529.2  16185.74  1989.40  12.29
530.7  16491.27  2041.31  12.38
532.1  16760.22  2090.98  12.48
533.6  17078.82  2143.50  12.55
535.0  17401.81  2198.66  12.63
536.5  17719.90  2253.51  12.72
538.0  18056.53  2311.16  12.80
539.4  18361.34  2366.84  12.89
540.9  18739.21  2432.16  12.98
542.3  19050.31  2494.50  13.09
543.8  19287.30  2544.74  13.19
545.2  19369.70  2577.55  13.31
546.6  19396.43  2598.53  13.40
548.1  19443.68  2623.86  13.49
549.5  19482.74  2648.47  13.59
551.0  19515.76  2672.60  13.69
552.4  19587.02  2702.89  13.80
553.9  19631.53  2729.39  13.90
555.3  19695.20  2758.74  14.01
556.8  19821.95  2798.03  14.12
558.2  19946.25  2834.89  14.21
559.6  20101.01  2877.88  14.32
561.1  20303.83  2926.19  14.41
562.5  20522.69  2976.38  14.50
564.0  20804.71  3037.18  14.60
565.4  21062.59  3094.16  14.69
566.8  21380.78  3160.62  14.78
568.3  21683.20  3224.05  14.87
569.7  22004.66  3290.76  14.95
571.1  22310.69  3355.07  15.04
572.6  22618.98  3419.49  15.12
574.0  22912.45  3485.68  15.21
575.4  23192.44  3547.91  15.30
576.9  23464.40  3610.07  15.39
578.3  23707.02  3664.73  15.46
579.7  23939.39  3721.38  15.55
581.1  24125.33  3770.44  15.63
582.6  24330.68  3815.52  15.68
584.0  24502.25  3862.92  15.77
585.4  24752.47  3924.53  15.86
586.8  25079.51  4003.32  15.96
588.3  25449.84  4087.51  16.06
589.7  25770.42  4165.98  16.17
591.1  25981.68  4226.57  16.27
592.5  26101.71  4267.38  16.35
594.0  26178.98  4302.95  16.44
595.4  26210.14  4327.01  16.51
596.8  26235.50  4354.21  16.60
598.2  26268.80  4381.77  16.68
599.6  26279.34  4408.41  16.78
601.0  26364.93  4443.74  16.85
602.4  26438.01  4483.78  16.96
603.9  26565.68  4528.63  17.05
605.3  26693.52  4573.66  17.13
606.7  26821.80  4615.92  17.21
608.1  27039.32  4673.57  17.28
609.5  27272.70  4734.15  17.36
610.9  27544.77  4801.29  17.43
612.3  27790.61  4863.91  17.50
613.7  28125.45  4944.93  17.58
615.1  28362.96  5005.37  17.65
616.5  28595.75  5065.06  17.71
617.9  28955.04  5154.17  17.80
619.3  29298.21  5237.76  17.88
620.7  29710.08  5335.96  17.96
622.1  30133.92  5447.02  18.08
623.5  30607.01  5582.39  18.24
624.9  31141.95  5727.49  18.39
626.3  31497.28  5830.43  18.51
627.7  31200.27  5806.97  18.61
629.1  30921.17  5775.79  18.68
630.5  30817.44  5770.13  18.72
631.9  30840.18  5784.76  18.76
633.3  30863.63  5792.96  18.77
634.7  30994.83  5844.60  18.86
636.1  31064.15  5891.49  18.97
637.5  31161.24  5910.89  18.97
638.9  31308.60  5933.48  18.95
640.2  31431.23  5976.58  19.01
641.6  31487.04  6004.75  19.07
643.0  31490.91  6017.56  19.11
644.4  31509.42  6061.58  19.24
645.8  31452.93  6098.24  19.39
647.2  31586.36  6166.77  19.52
648.5  31679.28  6231.17  19.67
649.9  31556.53  6260.27  19.84
651.3  31465.30  6308.36  20.05
652.7  31319.10  6355.28  20.29
654.1  31150.16  6313.84  20.27
655.5  30947.14  6257.18  20.22
656.8  30748.88  6206.84  20.19
658.2  30904.18  6234.01  20.17
659.6  31236.93  6309.81  20.20
660.9  31508.12  6376.36  20.24
662.3  31804.25  6440.94  20.25
663.7  32098.50  6508.88  20.28
665.0  32333.59  6571.81  20.33
666.4  32567.12  6636.63  20.38
667.8  32866.99  6709.03  20.41
669.1  33104.46  6776.99  20.47
670.5  33379.22  6858.99  20.55
671.9  33562.08  6923.08  20.63
673.2  33810.67  6997.86  20.70
674.6  34038.34  7078.79  20.80
676.0  34321.29  7176.10  20.91
677.3  34604.51  7270.63  21.01
678.7  34908.80  7367.52  21.11
680.0  35301.05  7490.90  21.22
681.4  35703.97  7621.25  21.35
682.8  36101.22  7757.30  21.49
684.1  36494.64  7898.44  21.64
685.5  36842.34  8037.64  21.82
686.8  37207.50  8186.55  22.00
688.2  37523.32  8322.32  22.18
689.5  37633.63  8428.03  22.39
690.9  37733.24  8525.34  22.59
692.2  37822.45  8610.84  22.77
693.6  37897.89  8701.64  22.96
694.9  37892.02  8771.27  23.15
696.2  37937.93  8854.77  23.34
697.6  37984.88  8932.49  23.52
698.9  38031.84  9009.79  23.69
700.3  38100.90  9089.75  23.86
701.6  38185.43  9172.65  24.02
703.0  38278.69  9252.79  24.17
704.3  38312.19  9321.60  24.33
705.6  38316.00  9384.26  24.49
707.0  38355.57  9446.14  24.63
708.3  38282.32  9491.68  24.79
709.6  38200.84  9528.51  24.94
711.0  38091.16  9560.70  25.10
712.3  37972.20  9589.70  25.25
713.6  37939.72  9635.55  25.40
714.9  37869.64  9676.91  25.55
716.3  37874.53  9731.29  25.69
717.6  37897.91  9796.35  25.85
718.9  37843.48  9842.48  26.01
720.2  37666.14  9854.74  26.16
721.6  37540.45  9876.77  26.31
722.9  37376.81  9887.82  26.45
724.2  37165.28  9889.43  26.61
725.5  37011.21  9899.78  26.75
726.8  36851.77  9919.23  26.92
728.1  36784.33  9950.33  27.05
729.5  36704.45  9985.52  27.21
730.8  36655.13  10027.46  27.36
732.1  36566.03  10053.01  27.49
733.4  36521.23  10097.36  27.65
734.7  36471.61  10134.65  27.79
736.0  36477.63  10191.31  27.94
737.3  36422.11  10233.23  28.10
738.6  36507.24  10304.09  28.22
739.9  36671.85  10398.62  28.36
741.2  36800.40  10483.93  28.49
742.5  37036.00  10599.96  28.62
743.8  37424.89  10759.21  28.75
745.1  38027.84  10983.14  28.88
746.4  38727.48  11249.00  29.05
747.7  39457.81  11536.62  29.24
749.0  40154.39  11811.02  29.41
750.3  40579.45  12008.63  29.59
751.6  40511.83  12067.29  29.79
752.9  40115.32  12010.80  29.94
754.2  39694.73  11936.52  30.07
755.4  39230.44  11860.41  30.23
756.7  39066.81  11866.84  30.38
758.0  39084.19  11921.41  30.50
759.3  39316.84  12040.77  30.62
760.6  39636.52  12192.90  30.76
761.9  39943.49  12343.01  30.90
763.1  40110.78  12451.08  31.04
764.4  40321.61  12572.80  31.18
765.7  40465.75  12673.48  31.32
767.0  40578.92  12770.11  31.47
768.2  40686.24  12858.72  31.60
769.5  40752.55  12945.49  31.77
770.8  40925.18  13053.11  31.90
772.0  40953.03  13125.48  32.05
773.3  41022.08  13207.06  32.20
774.6  41132.00  13290.04  32.31
775.8  41228.36  13375.77  32.44
777.1  41259.66  13442.09  32.58
778.4  41219.82  13491.13  32.73
779.6  41183.78  13529.15  32.85
780.9  41118.67  13564.27  32.99
782.1  40961.21  13584.77  33.16
783.4  40973.23  13630.10  33.27
784.6  40995.27  13689.15  33.39
785.9  41272.84  13829.27  33.51
787.1  41783.77  14071.03  33.68
788.4  42181.04  14300.26  33.90
789.6  42164.82  14374.86  34.09
790.9  41815.68  14312.84  34.23
792.1  41384.03  14224.55  34.37
793.4  40959.90  14148.74  34.54
794.6  40691.26  14103.31  34.66
795.8  40454.28  14071.86  34.78
797.1  40205.10  14038.54  34.92
798.3  40014.70  14030.25  35.06
799.5  39903.53  14041.46  35.19
800.8  39793.16  14053.64  35.32
802.0  39655.47  14072.57  35.49
803.2  39512.33  14078.90  35.63
804.5  39421.13  14101.76  35.77
805.7  39308.06  14115.93  35.91
806.9  39204.60  14133.09  36.05
808.1  39113.53  14151.42  36.18
809.4  39046.70  14183.32  36.32
810.6  38976.82  14209.65  36.46
811.8  38963.80  14259.19  36.60
813.0  38991.74  14314.58  36.71
814.2  39008.90  14386.74  36.88
815.4  39109.53  14485.13  37.04
816.6  39150.70  14566.87  37.21
817.9  39211.10  14638.64  37.33
819.1  39145.66  14687.16  37.52
820.3  39035.80  14711.31  37.69
821.5  38960.04  14739.12  37.83
822.7  38891.50  14767.98  37.97
823.9  38901.12  14829.88  38.12
825.1  38924.00  14881.19  38.23
826.3  38961.03  14945.13  38.36
827.5  39002.39  15023.42  38.52
828.7  39065.52  15102.72  38.66
829.9  39110.12  15171.25  38.79
831.0  39196.89  15258.16  38.93
832.2  39300.50  15351.32  39.06
833.4  39367.91  15424.28  39.18
834.6  39425.00  15511.57  39.34
835.8  39502.58  15592.19  39.47
837.0  39576.61  15677.13  39.61
838.1  39726.71  15784.38  39.73
839.3  39813.87  15874.25  39.87
840.5  39909.99  15964.99  40.00
841.7  40029.93  16062.26  40.13
842.9  40148.84  16172.82  40.28
844.0  40248.53  16267.80  40.42
845.2  40372.34  16376.41  40.56
846.4  40487.16  16483.55  40.71
847.5  40672.16  16623.84  40.87
848.7  40829.86  16743.14  41.01
849.9  41005.09  16873.60  41.15
851.0  41071.91  16960.16  41.29
852.2  41153.43  17042.13  41.41
853.3  41112.20  17094.99  41.58
854.5  41128.14  17145.41  41.69
855.6  41120.58  17188.72  41.80
856.8  41138.60  17250.38  41.93
857.9  41138.86  17298.56  42.05
859.1  41269.27  17380.67  42.12
860.2  41263.79  17427.42  42.23
861.4  41297.48  17498.74  42.37
862.5  41334.46  17557.95  42.48
863.7  41412.31  17628.14  42.57
864.8  41409.55  17679.25  42.69
865.9  41355.43  17693.30  42.78
867.1  41397.70  17754.20  42.89
868.2  41392.87  17803.04  43.01
869.3  41417.56  17853.38  43.11
870.5  41374.83  17865.04  43.18
871.6  41370.17  17908.12  43.29
872.7  41437.28  17978.18  43.39
873.9  41452.77  18023.77  43.48
875.0  41442.92  18065.33  43.59
876.1  41436.88  18099.85  43.68
877.2  41470.48  18144.77  43.75
878.3  41455.17  18194.18  43.89
879.4  41485.84  18251.93  44.00
880.5  41535.24  18299.91  44.06
881.7  41506.40  18341.57  44.19
882.8  41561.63  18406.23  44.29
883.9  41583.53  18455.56  44.38
885.0  41552.88  18484.97  44.49
886.1  41525.35  18508.80  44.57
887.2  41418.75  18489.82  44.64
888.3  41323.53  18486.78  44.74
889.4  41256.54  18488.06  44.81
890.5  41170.86  18495.67  44.92
891.6  41130.57  18504.55  44.99
892.7  41117.88  18529.28  45.06
893.8  41152.03  18572.17  45.13
894.9  41136.74  18617.29  45.26
896.0  41154.97  18649.91  45.32
897.0  41130.79  18678.58  45.41
898.1  41131.24  18708.74  45.49
899.2  41167.61  18754.10  45.56
900.3  41106.29  18761.85  45.64
901.4  41031.62  18764.50  45.73
902.4  41039.82  18803.00  45.82
903.5  40990.01  18807.10  45.88
904.6  41009.70  18835.94  45.93
905.7  41021.83  18870.16  46.00
906.7  41009.77  18898.73  46.08
907.8  41064.40  18958.07  46.17
908.9  40978.70  18946.54  46.24
909.9  40960.20  18978.95  46.34
911.0  40907.09  18970.32  46.37
912.1  40828.36  18971.72  46.47
913.1  40768.17  18970.26  46.53
914.2  40696.13  18961.52  46.59
915.2  40635.99  18985.66  46.72
916.3  40655.60  19009.24  46.76
917.3  40632.26  19043.21  46.87
918.4  40550.77  19032.00  46.93
919.4  40559.61  19047.37  46.96
920.5  40548.69  19072.62  47.04
921.5  40555.32  19107.07  47.11
922.6  40490.44  19115.08  47.21
923.6  40544.38  19146.56  47.22
924.7  40570.50  19182.30  47.28
925.7  40565.72  19219.30  47.38
926.7  40574.37  19274.29  47.50
927.8  40621.06  19325.66  47.58
928.8  40761.44  19406.44  47.61
929.9  40882.65  19480.78  47.65
930.9  41068.75  19584.06  47.69
931.9  41247.91  19707.51  47.78
932.9  41562.93  19859.78  47.78
934.0  41604.94  19915.06  47.87
935.0  41607.94  19970.55  48.00
936.0  41635.18  19970.67  47.97
937.0  41580.96  19980.43  48.05
938.1  41536.75  19980.80  48.10
939.1  41476.40  20004.33  48.23
940.1  41575.45  20079.56  48.30
941.1  41742.38  20197.42  48.39
942.1  42012.43  20329.27  48.39
943.1  42169.31  20429.82  48.45
944.1  42412.61  20565.14  48.49
945.2  42427.84  20600.24  48.55
946.2  42550.21  20690.24  48.63
947.2  42612.75  20741.95  48.68
948.2  42786.80  20842.25  48.71
949.2  42878.61  20907.52  48.76
950.2  42946.17  20962.60  48.81
951.2  43011.36  21043.96  48.93
952.2  43098.25  21108.46  48.98
953.2  43297.80  21203.31  48.97
954.2  43385.85  21289.92  49.07
955.2  43419.55  21326.22  49.12
956.2  43437.41  21369.07  49.20
957.2  43536.56  21427.16  49.22
958.2  43595.39  21501.98  49.32
959.2  43678.50  21553.98  49.35
960.1  43758.42  21598.38  49.36
961.1  43861.10  21650.29  49.36
962.1  43890.00  21698.00  49.44
963.1  43897.54  21741.41  49.53
964.1  44016.64  21815.32  49.56
965.1  44158.12  21901.30  49.60
966.1  44125.42  21930.91  49.70
967.0  44256.50  22008.89  49.73
968.0  44325.88  22050.00  49.75
969.0  44340.80  22103.35  49.85
970.0  44402.51  22160.79  49.91
971.0  44499.11  22206.26  49.90
971.9  44558.35  22261.86  49.96
972.9  44650.90  22358.23  50.07
973.9  44717.30  22405.72  50.11
974.9  44842.61  22465.30  50.10
975.8  44863.27  22548.95  50.26
976.8  45006.25  22620.11  50.26
977.8  45014.65  22676.17  50.38
978.8  45025.45  22731.78  50.49
979.7  45275.23  22833.19  50.43
980.7  45358.61  22944.41  50.58
981.7  45578.92  23048.87  50.57
982.6  45753.53  23179.23  50.66
983.6  46290.38  23397.10  50.54
984.6  46671.81  23579.43  50.52
985.5  47008.92  23850.55  50.74
986.5  47743.18  24235.20  50.76
987.5  48791.01  24520.77  50.26
988.4  49651.07  24989.14  50.33
989.4  50892.09  25491.82  50.09
990.4  51868.01  25992.39  50.11
991.3  53683.09  26415.48  49.21
992.3  54255.42  26997.29  49.76
993.2  55949.16  27854.90  49.79
994.2  57602.51  28286.80  49.11
995.2  58938.74  28536.79  48.42
996.1  59700.22  29096.21  48.74
997.1  60040.13  29032.07  48.35
998.0  59269.80  28892.60  48.75
999.0  59619.86  29243.84  49.05
1000.0  59877.40  29101.16  48.60
1000.9  60335.13  29249.42  48.48
1001.9  59869.24  29245.38  48.85
1002.8  59515.62  28600.95  48.06
1003.8  60370.40  28832.32  47.76
1004.8  59631.04  28689.83  48.11
961.5  53915.77  24718.11  45.85
965.5  52712.93  24252.50  46.01
969.5  50718.22  23415.02  46.17
973.4  48639.16  22689.26  46.65
977.4  46918.09  22149.75  47.21
981.4  46137.59  21987.89  47.66
985.3  45940.08  21984.45  47.85
989.3  46116.30  22038.78  47.79
993.3  46368.56  22059.15  47.57
997.2  46443.45  21997.73  47.36
1001.2  46427.12  21958.43  47.30
1005.2  46353.06  21974.78  47.41
1009.1  46410.03  22082.21  47.58
1013.1  46541.71  22235.30  47.78
1017.1  46660.38  22355.13  47.91
1021.0  46683.88  22398.10  47.98
1025.0  46690.17  22439.59  48.06
1029.0  46538.32  22423.52  48.18
1032.9  46395.87  22407.32  48.30
1036.9  46403.04  22477.35  48.44
1040.9  46511.81  22592.32  48.57
1044.8  46708.88  22747.67  48.70
1048.8  46865.39  22883.37  48.83
1052.7  46976.02  22976.77  48.91
1056.7  47013.77  23028.73  48.98
1060.7  47013.98  23076.75  49.08
1064.6  47013.45  23131.57  49.20
1068.6  46923.84  23123.63  49.28
1072.5  46833.91  23115.44  49.36
1076.5  46780.43  23143.14  49.47
1080.4  46765.50  23168.62  49.54
1084.4  46856.06  23243.30  49.61
1088.3  46955.73  23332.02  49.69
1092.3  46940.09  23332.77  49.71
1096.2  46923.60  23343.21  49.75
1100.2  46952.19  23397.49  49.83
1104.1  46849.01  23368.55  49.88
1108.1  46805.01  23370.84  49.93
1112.0  46714.32  23338.47  49.96
1116.0  46521.35  23252.09  49.98
1119.9  46361.13  23179.92  50.00
1123.9  46437.55  23217.49  50.00
1127.8  46403.84  23197.44  49.99
1131.8  46375.32  23173.69  49.97
1135.7  46408.20  23173.09  49.93
1139.6  46408.16  23126.36  49.83
1143.6  46363.98  23053.88  49.72
1147.5  46332.91  22989.09  49.62
1151.4  46200.71  22854.81  49.47
1155.4  46198.31  22812.82  49.38
1159.3  46197.80  22792.87  49.34
1163.2  46035.87  22689.82  49.29
1167.2  46009.38  22659.54  49.25
1171.1  46019.76  22642.92  49.20
1175.0  45958.75  22594.94  49.16
1179.0  45913.23  22570.76  49.16
1182.9  45999.54  22608.63  49.15
1186.8  45988.06  22596.74  49.14
1190.7  45779.79  22481.46  49.11
1194.7  45530.16  22361.75  49.11
1198.6  45302.57  22266.09  49.15
1202.5  45139.18  22205.77  49.19
1206.4  45005.71  22167.08  49.25
1210.3  44900.78  22147.29  49.32
1214.2  44785.42  22150.21  49.46
1218.2  44629.81  22133.36  49.59
1222.1  44485.42  22108.44  49.70
1226.0  44377.93  22105.62  49.81
1229.9  44289.98  22106.30  49.91
1233.8  44181.54  22091.29  50.00
1237.7  44120.54  22083.41  50.05
1241.6  44040.77  22058.50  50.09
1245.5  43881.03  22004.97  50.15
1249.4  43740.98  21965.33  50.22
1253.3  43615.60  21924.09  50.27
1257.2  43536.78  21888.07  50.27
1261.1  43435.76  21835.01  50.27
1265.0  43311.12  21783.51  50.30
1268.9  43129.67  21704.94  50.32
1272.8  43182.25  21735.05  50.33
1276.7  43362.60  21825.98  50.33
1280.6  43436.73  21872.13  50.35
1284.5  43348.96  21836.29  50.37
1288.4  43320.38  21822.94  50.38
1292.3  43195.17  21769.92  50.40
1296.2  43044.04  21700.24  50.41
1300.1  42878.35  21605.21  50.39
1303.9  42645.68  21450.59  50.30
1307.8  42405.51  21291.60  50.21
1311.7  42160.76  21136.51  50.13
1315.6  41918.32  20969.43  50.02
1319.5  41670.14  20785.87  49.88
1323.3  41446.79  20607.94  49.72
1327.2  41244.48  20442.80  49.56
1331.1  41014.94  20256.98  49.39
1335.0  40724.57  20025.41  49.17
1338.8  40519.89  19815.95  48.90
1342.7  40364.88  19596.12  48.55
1346.5  40028.10  19232.18  48.05
1350.4  39754.54  18861.28  47.44
1354.3  39376.48  18456.42  46.87
1358.1  38942.34  18092.07  46.46
1362.0  38671.85  17886.96  46.25
1365.8  38570.75  17804.74  46.16
1369.7  38668.93  17777.92  45.97
1373.5  38616.65  17500.97  45.32
1377.4  38380.57  16958.02  44.18
1381.2  38181.31  16421.65  43.01
1385.1  38140.46  16010.04  41.98
1389.0  38024.28  15570.15  40.95
1392.8  37816.75  15097.06  39.92
1396.6  37669.32  14711.93  39.06
1400.5  37458.54  14340.15  38.28
1404.3  37289.35  13982.89  37.50
1408.2  37247.59  13670.60  36.70
1412.0  37198.35  13366.92  35.93
1415.8  37226.86  13138.05  35.29
1419.6  37176.89  12931.71  34.78
1423.5  37146.99  12768.81  34.37
1427.3  37109.52  12640.01  34.06
1431.1  37085.30  12544.93  33.83
1434.9  36995.78  12459.99  33.68
1438.8  36938.91  12410.72  33.60
1442.6  36914.15  12383.96  33.55
1446.4  36786.26  12344.05  33.56
1450.2  36691.40  12331.07  33.61
1454.0  36588.68  12315.04  33.66
1457.8  36564.24  12324.96  33.71
1461.6  36539.78  12350.45  33.80
1465.4  36421.37  12355.00  33.92
1469.2  36240.75  12355.53  34.09
1473.0  36102.59  12386.88  34.31
1476.8  36051.63  12464.45  34.57
1480.7  35991.49  12546.66  34.86
1484.4  35870.48  12612.96  35.16
1488.2  35769.40  12692.00  35.48
1492.0  35643.44  12756.38  35.79
1495.8  35527.92  12823.42  36.09
1499.6  35414.90  12888.51  36.39
1503.4  35297.74  12943.98  36.67
1507.2  35188.28  12999.92  36.94
1510.9  35043.47  13036.45  37.20
1514.7  34889.62  13075.48  37.48
1518.5  34764.35  13134.70  37.78
1522.3  34626.89  13179.54  38.06
1526.0  34516.56  13222.49  38.31
1529.8  34448.65  13284.43  38.56
1533.6  34326.77  13330.62  38.83
1537.3  34199.84  13359.97  39.06
1541.1  34077.75  13374.30  39.25
1544.8  33948.80  13383.20  39.42
1548.6  33809.05  13392.68  39.61
1552.4  33717.15  13434.49  39.84
1556.1  33649.22  13478.33  40.06
1559.9  33560.69  13499.76  40.22
1563.6  33435.65  13508.20  40.40
1567.3  33321.38  13522.62  40.58
1571.1  33114.40  13489.81  40.74
1574.8  32974.81  13476.21  40.87
1578.6  32877.98  13473.09  40.98
1582.3  32742.84  13460.42  41.11
1586.0  32611.16  13452.74  41.25
1589.8  32478.60  13445.53  41.40
1593.5  32328.52  13432.78  41.55
1597.2  32195.81  13422.39  41.69
1600.9  32064.03  13396.73  41.78
1604.7  31918.25  13365.49  41.87
1608.4  31784.06  13349.29  42.00
1612.1  31626.69  13315.82  42.10
1615.8  31485.72  13284.33  42.19
1619.5  31409.53  13278.30  42.27
1623.2  31264.52  13248.03  42.37
1626.9  31087.98  13192.63  42.44
1630.6  30917.92  13138.18  42.49
1634.3  30784.36  13109.59  42.59
1638.0  30645.42  13063.60  42.63
1641.7  30477.38  12996.42  42.64
1645.4  30299.26  12929.20  42.67
1649.1  30116.47  12852.64  42.68
1652.8  29969.41  12783.25  42.65
1656.4  29806.84  12697.46  42.60
1660.1  29649.40  12617.81  42.56
1663.8  29461.09  12525.63  42.52
1667.5  29307.02  12453.04  42.49
1671.1  29183.65  12387.81  42.45
1674.8  28991.42  12293.36  42.40
1678.5  28935.95  12263.02  42.38
1682.1  28956.61  12252.79  42.31
1685.8  28963.86  12234.03  42.24
1689.5  28858.53  12165.51  42.16
1693.1  28722.03  12069.62  42.02
1696.8  28580.75  11972.38  41.89
1700.4  28430.76  11870.30  41.75
1704.0  28310.92  11775.82  41.59
1707.7  28059.00  11623.19  41.42
1711.3  27773.04  11454.39  41.24
1715.0  27571.42  11324.57  41.07
1718.6  27408.65  11210.88  40.90
1722.2  27271.40  11115.33  40.76
1725.9  27131.77  11032.24  40.66
1729.5  27000.92  10960.64  40.59
1733.1  26887.99  10907.45  40.57
1736.7  26780.04  10861.07  40.56
1740.3  26614.84  10780.70  40.51
1744.0  26529.31  10724.50  40.43
1747.5  26393.45  10642.34  40.32
1751.2  26181.05  10525.14  40.20
1754.8  26021.15  10435.97  40.11
1758.4  25890.24  10358.48  40.01
1762.0  25716.79  10271.11  39.94
1765.5  25590.17  10209.79  39.90
1769.1  25543.20  10188.80  39.89
1772.7  25467.31  10154.48  39.87
1776.3  25349.83  10093.97  39.82
1779.9  25226.99  10035.22  39.78
1783.5  25169.52  10001.01  39.73
1787.0  25044.15  9941.86  39.70
1790.6  24896.56  9870.74  39.65
1794.2  24801.10  9823.47  39.61
1797.8  24708.02  9767.91  39.53
1801.3  24629.12  9724.62  39.48
1804.9  24486.00  9658.25  39.44
1808.4  24409.79  9608.40  39.36
1812.0  24285.68  9539.61  39.28
1815.5  24144.30  9472.39  39.23
1819.1  23956.16  9407.97  39.27
1822.6  23802.77  9346.79  39.27
1826.2  23681.77  9280.69  39.19
1829.7  23519.67  9196.13  39.10
1833.2  23300.67  9095.33  39.03
1836.8  23087.01  9012.49  39.04
1840.3  22936.97  8969.15  39.10
1843.8  22831.22  8935.15  39.14
1847.3  22759.94  8914.46  39.17
1850.8  22663.87  8882.50  39.19
1854.3  22495.83  8807.79  39.15
1857.8  22405.07  8722.13  38.93
1861.3  22411.24  8602.04  38.38
1864.8  22360.19  8380.89  37.48
1868.3  22172.11  8094.19  36.51
1871.8  21985.28  7838.72  35.65
1875.3  21913.26  7626.71  34.80
1878.8  21907.84  7367.92  33.63
1882.3  21848.85  7036.64  32.21
1885.8  21686.38  6671.09  30.76
1889.3  21489.20  6300.24  29.32
1892.7  21320.43  5973.50  28.02
1896.2  21188.03  5707.81  26.94
1899.7  21013.93  5493.77  26.14
1903.1  20917.51  5415.87  25.89
1906.6  20973.43  5455.98  26.01
1910.0  21216.31  5684.56  26.79
1913.5  21688.14  6069.34  27.98
1917.0  22204.24  6511.11  29.32
1920.4  22511.58  7057.02  31.35
1923.8  22720.74  7332.77  32.27
1871.2  20153.77  6566.57  32.58
1873.9  20256.08  6550.38  32.34
1876.7  20362.74  6363.78  31.25
1879.5  20549.81  6210.97  30.22
1882.3  20295.74  5939.27  29.26
1885.1  20153.56  5651.85  28.04
1887.8  20251.06  5445.55  26.89
1890.6  20055.63  5161.39  25.74
1893.4  20000.45  4896.22  24.48
1896.2  19951.50  4609.66  23.10
1898.9  19888.78  4367.87  21.96
1901.7  19751.20  4204.97  21.29
1904.5  19918.61  4122.67  20.70
1907.2  19843.92  3996.33  20.14
1910.0  19727.37  3893.88  19.74
1912.7  19727.09  3849.87  19.52
1915.5  19628.29  3808.49  19.40
1918.2  19550.82  3759.64  19.23
1921.0  19412.83  3728.30  19.21
1923.7  19445.28  3747.43  19.27
1926.5  19407.56  3732.14  19.23
1929.2  19383.23  3718.66  19.18
1932.0  19364.48  3734.07  19.28
1934.7  19318.63  3752.00  19.42
1937.4  19216.90  3736.48  19.44
1940.2  19164.28  3747.42  19.55
1942.9  19240.34  3785.95  19.68
1945.6  19246.46  3809.23  19.79
1948.3  19173.11  3823.59  19.94
1951.1  19141.59  3840.76  20.06
1953.8  19144.00  3877.00  20.25
1956.5  19024.24  3876.53  20.38
1959.2  19081.18  3926.87  20.58
1961.9  19107.76  3977.31  20.82
1964.6  19011.25  3974.60  20.91
1967.3  19055.89  4024.78  21.12
1970.0  18887.76  4020.67  21.29
1972.8  18804.11  4032.04  21.44
1975.5  18875.05  4111.97  21.79
1978.2  18805.77  4125.96  21.94
1980.9  18687.09  4120.84  22.05
1983.5  18629.81  4167.64  22.37
1986.2  18638.55  4205.92  22.57
1988.9  18618.18  4245.69  22.80
1991.6  18473.97  4259.06  23.05
1994.3  18341.88  4258.37  23.22
1997.0  18368.76  4301.93  23.42
1999.7  18335.60  4335.26  23.64
2002.3  18309.02  4381.16  23.93
2005.0  18239.02  4401.30  24.13
2007.7  18153.64  4416.58  24.33
2010.4  18093.09  4442.38  24.55
2013.0  18049.63  4460.96  24.71
2015.7  17950.81  4470.89  24.91
2018.4  17833.18  4484.77  25.15
2021.0  17793.33  4508.78  25.34
2023.7  17689.28  4499.11  25.43
2026.4  17621.06  4512.30  25.61
2029.0  17557.92  4521.16  25.75
2031.7  17439.86  4502.91  25.82
2034.3  17432.35  4528.26  25.98
2037.0  17334.77  4520.89  26.08
2039.6  17271.06  4533.22  26.25
2042.3  17213.21  4545.76  26.41
2044.9  17132.94  4538.49  26.49
2047.5  17119.85  4547.84  26.56
2050.2  17023.07  4528.53  26.60
2052.8  16984.80  4537.87  26.72
2055.4  16854.82  4541.50  26.94
2058.1  16731.87  4526.67  27.05
2060.7  16706.65  4532.56  27.13
2063.3  16614.11  4510.68  27.15
2065.9  16553.66  4501.10  27.19
2068.6  16491.31  4491.79  27.24
2071.2  16447.05  4499.34  27.36
2073.8  16365.59  4491.33  27.44
2076.4  16313.28  4482.25  27.48
2079.0  16320.48  4485.70  27.49
2081.6  16307.95  4476.95  27.45
2084.2  16263.15  4486.45  27.59
2086.8  16154.50  4452.74  27.56
2089.4  16064.05  4429.93  27.58
2092.1  15973.39  4430.39  27.74
2094.7  15907.58  4419.24  27.78
2097.2  15880.83  4403.94  27.73
2099.8  15884.40  4411.38  27.77
2102.4  15752.07  4397.69  27.92
2105.0  15617.05  4370.00  27.98
2107.6  15586.08  4352.25  27.92
2110.2  15560.02  4350.59  27.96
2112.8  15542.17  4362.76  28.07
2115.3  15529.30  4372.34  28.16
2117.9  15533.59  4383.45  28.22
2120.5  15529.18  4383.19  28.23
2123.1  15454.73  4366.05  28.25
2125.6  15397.18  4356.39  28.29
2128.2  15306.47  4341.22  28.36
2130.8  15219.75  4329.98  28.45
2133.3  15180.00  4330.58  28.53
2135.9  15082.91  4317.39  28.62
2138.4  14958.26  4292.31  28.70
2141.0  14859.16  4261.56  28.68
2143.6  14849.87  4250.92  28.63
2146.1  14719.09  4233.16  28.76
2148.7  14549.23  4202.37  28.88
2151.2  14560.09  4213.25  28.94
2153.8  14574.40  4241.34  29.10
2156.3  14452.63  4211.45  29.14
2158.8  14382.73  4200.62  29.21
2161.4  14365.26  4203.34  29.26
2163.9  14274.85  4175.82  29.25
2166.4  14195.94  4168.90  29.37
2169.0  14171.30  4166.93  29.40
2171.5  14084.57  4136.37  29.37
2174.0  13986.47  4117.40  29.44
2176.5  13973.27  4118.23  29.47
2179.1  13930.97  4100.89  29.44
2181.6  13838.57  4078.88  29.47
2184.1  13807.64  4061.49  29.41
2186.6  13849.46  4081.93  29.47
2189.1  13755.92  4064.93  29.55
2191.6  13705.84  4045.22  29.51
2194.1  13730.67  4064.61  29.60
2196.6  13731.59  4059.02  29.56
2199.2  13788.22  4081.35  29.60
2201.7  13716.59  4075.93  29.72
2204.1  13659.46  4057.16  29.70
2206.6  13671.69  4057.00  29.67
2209.1  13641.14  4029.77  29.54
2211.6  13629.13  4010.96  29.43
2214.1  13577.02  4010.76  29.54
2216.6  13515.74  4012.31  29.69
2219.1  13543.59  4004.71  29.57
2221.6  13488.29  3960.20  29.36
2224.0  13426.44  3943.35  29.37
2226.5  13388.53  3917.88  29.26
2229.0  13399.47  3892.95  29.05
2231.5  13329.68  3846.60  28.86
2233.9  13310.10  3811.13  28.63
2236.4  13289.98  3785.37  28.48
2238.9  13225.38  3741.96  28.29
2241.3  13241.87  3722.13  28.11
2243.8  13178.39  3676.78  27.90
2246.2  13030.77  3615.64  27.75
2248.7  13008.54  3593.13  27.62
2251.2  12995.59  3566.61  27.44
2253.6  12916.48  3525.12  27.29
2256.1  12907.52  3477.76  26.94
2258.5  12928.49  3467.75  26.82
2260.9  12837.02  3425.94  26.69
2263.4  12804.68  3367.50  26.30
2265.8  12804.27  3328.65  26.00
2268.3  12720.03  3280.06  25.79
2270.7  12779.09  3279.22  25.66
2273.1  12718.14  3238.02  25.46
2275.6  12637.44  3187.20  25.22
2278.0  12672.75  3168.19  25.00
2280.4  12676.41  3147.94  24.83
2282.8  12545.49  3079.27  24.54
2285.3  12547.65  3056.23  24.36
2287.7  12637.88  3044.60  24.09
2290.1  12545.24  2990.04  23.83
2292.5  12501.57  2976.25  23.81
2294.9  12505.71  2969.02  23.74
2297.3  12416.06  2916.16  23.49
2299.7  12328.02  2848.07  23.10
2302.1  12294.38  2831.02  23.03
2304.5  12168.99  2798.88  23.00
2306.9  12067.07  2741.39  22.72
2309.3  11990.10  2706.26  22.57
2311.7  11934.62  2684.70  22.50
2314.1  11779.56  2629.49  22.32
2316.5  11700.49  2626.67  22.45
2318.9  11751.42  2659.31  22.63
2321.3  11734.46  2627.91  22.39
2323.7  11704.46  2620.96  22.39
2326.1  11678.94  2628.90  22.51
2328.4  11743.92  2626.79  22.37
2330.8  11791.47  2642.14  22.41
2333.2  11696.07  2604.16  22.27
2335.6  11639.89  2574.03  22.11
2337.9  11682.55  2608.33  22.33
2340.3  11625.19  2590.37  22.28
2342.7  11528.47  2571.44  22.31
2345.0  11509.88  2591.88  22.52
2347.4  11493.42  2585.42  22.49
2349.7  11291.44  2544.49  22.53
2352.1  11262.59  2542.98  22.58
2354.4  11310.35  2558.94  22.62
2356.8  11233.40  2536.76  22.58
2359.2  11198.78  2520.56  22.51
2361.5  11138.14  2514.74  22.58
2363.8  11137.27  2501.79  22.46
2366.2  11159.85  2500.89  22.41
2368.5  11117.58  2462.33  22.15
2370.9  11108.78  2451.39  22.07
2373.2  11046.81  2452.18  22.20
2375.5  10909.78  2405.79  22.05
2377.9  10888.34  2380.97  21.87
2380.2  10913.53  2385.52  21.86
2382.5  10824.29  2349.58  21.71
2384.8  10781.81  2301.44  21.35
2387.2  10770.66  2294.16  21.30
2389.5  10748.09  2277.42  21.19
2391.8  10745.70  2246.74  20.91
2394.1  10660.30  2240.82  21.02
2396.4  10610.47  2256.28  21.26
2398.7  10678.69  2252.33  21.09
2401.0  10597.14  2220.31  20.95
2403.3  10454.68  2184.56  20.90
2405.6  10454.85  2154.28  20.61
2407.9  10414.12  2150.96  20.65
2410.2  10329.14  2140.69  20.72
2412.5  10285.30  2120.75  20.62
2414.8  10268.29  2103.64  20.49
2417.1  10223.54  2076.71  20.31
2419.4  10190.76  2037.11  19.99
2421.7  10136.61  2023.82  19.97
2424.0  10099.97  2012.95  19.93
2426.2  10125.77  1991.98  19.67
2428.5  10048.68  1977.65  19.68
2430.8  10028.00  1914.77  19.09
2433.1  9986.50  1860.48  18.63
2435.4  9905.02  1881.79  19.00
2437.6  9873.31  1872.46  18.96
2439.9  9771.98  1830.49  18.73
2442.2  9753.59  1837.33  18.84
2444.4  9757.92  1832.12  18.78
2446.7  9719.71  1804.56  18.57
2448.9  9754.96  1784.40  18.29
2451.2  9716.79  1768.13  18.20
2453.4  9596.46  1741.71  18.15
2455.7  9566.46  1719.08  17.97
2457.9  9474.96  1682.95  17.76
2460.2  9444.78  1678.94  17.78
2462.4  9468.16  1666.08  17.60
2464.7  9391.00  1623.35  17.29
2466.9  9306.86  1596.44  17.15
2469.2  9305.51  1594.49  17.13
2471.4  9206.32  1588.73  17.26
2473.6  9123.06  1575.56  17.27
2475.9  9110.13  1542.06  16.93
2478.1  9022.35  1505.25  16.68
2480.3  8975.91  1513.00  16.86
2482.5  8940.18  1505.91  16.84
2484.8  8866.65  1453.91  16.40
2487.0  8875.65  1377.64  15.52
2489.2  8887.69  1462.44  16.45
2491.4  8771.15  1467.84  16.73
2493.6  8760.65  1392.61  15.90
2495.8  8778.79  1441.14  16.42
2498.0  8730.88  1378.13  15.78
2500.2  8742.34  1373.28  15.71
2502.4  8977.68  1447.44  16.12
2504.6  9098.91  1452.32  15.96
2506.8  9173.40  1477.49  16.11
