/*** Spectra Vista SIG Data ***/
name= AOHDF.sig
comm= Averaged Ref/Tar of files: AOHDF1,AOHDF2,AOHDF3
data=
346.4  509.60  65.82  12.92
347.9  536.51  71.33  13.29
349.5  577.20  70.30  12.18
351.1  620.88  73.63  11.86
352.6  679.94  76.74  11.29
354.2  723.22  78.98  10.92
355.7  777.89  84.86  10.91
357.3  842.60  87.84  10.43
358.8  838.80  88.54  10.56
360.4  904.00  94.03  10.40
361.9  943.76  92.40  9.79
363.5  997.20  96.72  9.70
365.1  1040.25  96.40  9.27
366.6  1087.54  99.20  9.12
368.2  1161.70  103.19  8.88
369.7  1204.79  101.00  8.38
371.3  1287.37  106.68  8.29
372.8  1354.56  108.67  8.02
374.4  1435.13  111.70  7.78
375.9  1463.02  115.41  7.89
377.4  1512.41  116.22  7.68
379.0  1578.52  118.17  7.49
380.5  1618.77  117.35  7.25
382.1  1669.58  119.38  7.15
383.6  1726.52  120.39  6.97
385.2  1809.50  122.28  6.76
386.7  1900.67  124.18  6.53
388.3  1991.93  131.16  6.58
389.8  2077.97  135.24  6.51
391.3  2163.95  137.58  6.36
392.9  2236.17  145.47  6.51
394.4  2293.88  153.32  6.68
395.9  2364.42  156.37  6.61
397.5  2493.56  161.71  6.49
399.0  2617.23  165.83  6.34
400.6  2691.33  163.95  6.09
402.1  2739.96  164.26  5.99
403.6  2797.88  165.43  5.91
405.1  2865.39  166.96  5.83
406.7  2979.20  170.54  5.72
408.2  3089.54  175.23  5.67
409.7  3183.04  180.84  5.68
411.3  3295.62  188.04  5.71
412.8  3391.47  193.39  5.70
414.3  3507.27  199.55  5.69
415.8  3622.50  205.00  5.66
417.4  3739.34  210.67  5.63
418.9  3830.42  216.23  5.65
420.4  3913.23  218.01  5.57
421.9  3978.48  221.35  5.56
423.5  4044.22  224.78  5.56
425.0  4110.68  225.65  5.49
426.5  4198.95  227.04  5.41
428.0  4314.36  232.89  5.40
429.5  4445.73  238.85  5.37
431.1  4599.50  245.49  5.34
432.6  4769.72  254.03  5.33
434.1  4937.63  261.67  5.30
435.6  5085.18  271.80  5.35
437.1  5233.80  277.81  5.31
438.6  5364.45  284.66  5.31
440.1  5501.44  290.63  5.28
441.6  5653.06  297.44  5.26
443.1  5799.60  304.97  5.26
444.7  5941.01  313.87  5.28
446.2  6051.88  321.22  5.31
447.7  6161.82  329.09  5.34
449.2  6292.08  333.50  5.30
450.7  6396.00  336.40  5.26
452.2  6529.70  340.34  5.21
453.7  6647.26  343.95  5.17
455.2  6815.62  353.14  5.18
456.7  7013.60  361.74  5.16
458.2  7232.90  373.27  5.16
459.7  7456.75  383.37  5.14
461.2  7667.16  395.36  5.16
462.7  7858.10  405.61  5.16
464.2  8041.02  415.05  5.16
465.7  8240.35  425.69  5.17
467.2  8402.63  435.18  5.18
468.7  8584.00  446.40  5.20
470.2  8698.25  459.63  5.28
471.7  8877.75  471.05  5.31
473.2  9159.71  481.43  5.26
474.6  9386.40  485.52  5.17
476.1  9450.96  487.74  5.16
477.6  9499.75  489.77  5.16
479.1  9557.87  494.14  5.17
480.6  9632.82  496.54  5.15
482.1  9760.73  505.84  5.18
483.6  9935.74  512.16  5.15
485.1  10133.78  522.49  5.16
486.6  10366.07  535.00  5.16
488.0  10621.00  546.00  5.14
489.5  10873.80  559.65  5.15
491.0  11134.31  573.40  5.15
492.5  11404.80  586.77  5.14
494.0  11683.71  601.90  5.15
495.4  11917.95  614.68  5.16
496.9  12154.26  628.14  5.17
498.4  12387.41  640.67  5.17
499.9  12623.63  654.71  5.19
501.4  12839.71  669.15  5.21
502.8  13042.06  681.35  5.22
504.3  13226.40  692.76  5.24
505.8  13406.54  704.93  5.26
507.2  13518.16  713.50  5.28
508.7  13603.31  722.00  5.31
510.2  13672.60  729.53  5.34
511.6  13715.26  733.89  5.35
513.1  13806.21  739.89  5.36
514.6  13898.29  747.09  5.38
516.0  13992.63  753.88  5.39
517.5  14151.40  764.43  5.40
519.0  14339.95  778.21  5.43
520.5  14520.56  791.35  5.45
521.9  14760.83  807.65  5.47
523.4  15031.28  825.79  5.49
524.8  15295.25  843.22  5.51
526.3  15594.01  865.72  5.55
527.8  15909.50  886.50  5.57
529.2  16189.50  905.26  5.59
530.7  16509.28  928.90  5.63
532.1  16791.25  949.40  5.65
533.6  17121.20  972.37  5.68
535.0  17454.94  994.69  5.70
536.5  17789.22  1018.50  5.73
538.0  18136.88  1045.12  5.76
539.4  18461.69  1069.84  5.79
540.9  18864.39  1100.22  5.83
542.3  19206.33  1122.91  5.85
543.8  19460.81  1138.14  5.85
545.2  19544.37  1149.30  5.88
546.6  19566.05  1158.56  5.92
548.1  19604.97  1166.20  5.95
549.5  19640.65  1173.68  5.98
551.0  19664.79  1181.54  6.01
552.4  19724.92  1190.46  6.04
553.9  19761.60  1200.02  6.07
555.3  19812.20  1209.20  6.10
556.8  19934.49  1221.02  6.13
558.2  20047.50  1234.69  6.16
559.6  20200.16  1250.06  6.19
561.1  20397.00  1269.45  6.22
562.5  20617.77  1288.84  6.25
564.0  20901.40  1315.45  6.29
565.4  21161.13  1338.72  6.33
566.8  21482.31  1367.78  6.37
568.3  21793.28  1395.44  6.40
569.7  22118.60  1423.93  6.44
571.1  22425.71  1453.30  6.48
572.6  22741.56  1483.06  6.52
574.0  23030.70  1512.61  6.57
575.4  23309.44  1541.25  6.61
576.9  23581.06  1567.80  6.65
578.3  23822.01  1597.79  6.71
579.7  24048.22  1625.35  6.76
581.1  24227.75  1650.74  6.81
582.6  24429.78  1678.27  6.87
584.0  24600.48  1703.77  6.93
585.4  24853.74  1737.49  6.99
586.8  25196.68  1773.06  7.04
588.3  25573.86  1815.22  7.10
589.7  25896.78  1852.50  7.15
591.1  26104.75  1881.22  7.21
592.5  26211.06  1906.84  7.27
594.0  26269.26  1928.00  7.34
595.4  26286.44  1949.07  7.41
596.8  26295.56  1967.82  7.48
598.2  26315.92  1990.71  7.56
599.6  26317.98  2010.11  7.64
601.0  26398.05  2036.56  7.71
602.4  26470.93  2063.22  7.79
603.9  26597.64  2091.99  7.87
605.3  26727.57  2123.99  7.95
606.7  26857.80  2154.96  8.02
608.1  27088.39  2197.17  8.11
609.5  27333.21  2239.95  8.19
610.9  27623.29  2288.09  8.28
612.3  27891.32  2334.85  8.37
613.7  28252.28  2390.90  8.46
615.1  28513.62  2438.53  8.55
616.5  28776.05  2486.25  8.64
617.9  29165.50  2549.68  8.74
619.3  29543.24  2612.41  8.84
620.7  29990.55  2685.31  8.95
622.1  30437.05  2741.68  9.01
623.5  30934.60  2797.30  9.04
624.9  31494.75  2858.05  9.07
626.3  31867.36  2899.22  9.10
627.7  31569.69  2893.53  9.17
629.1  31287.59  2903.65  9.28
630.5  31184.65  2929.65  9.39
631.9  31222.21  2977.21  9.54
633.3  31256.33  3021.74  9.67
634.7  31400.48  3085.34  9.83
636.1  31461.82  3135.48  9.97
637.5  31554.77  3190.52  10.11
638.9  31702.82  3259.87  10.28
640.2  31825.04  3316.34  10.42
641.6  31863.78  3365.54  10.56
643.0  31847.61  3411.25  10.71
644.4  31829.55  3447.20  10.83
645.8  31751.71  3493.41  11.00
647.2  31867.94  3561.25  11.18
648.5  31926.34  3612.81  11.32
649.9  31776.23  3647.02  11.48
651.3  31648.05  3704.64  11.71
652.7  31449.15  3743.23  11.90
654.1  31244.46  3733.13  11.95
655.5  31005.95  3712.25  11.97
656.8  30780.41  3695.00  12.00
658.2  30925.42  3731.06  12.06
659.6  31264.45  3800.14  12.15
660.9  31536.04  3867.22  12.26
662.3  31822.64  3931.44  12.35
663.7  32096.40  3996.30  12.45
665.0  32332.90  4058.93  12.55
666.4  32562.99  4126.01  12.67
667.8  32863.56  4201.38  12.78
669.1  33114.69  4273.37  12.90
670.5  33405.09  4350.52  13.02
671.9  33586.56  4415.92  13.15
673.2  33844.75  4497.64  13.29
674.6  34082.18  4576.21  13.43
676.0  34372.41  4663.82  13.57
677.3  34659.68  4754.67  13.72
678.7  34979.63  4849.82  13.86
680.0  35399.92  4958.58  14.01
681.4  35845.89  5076.45  14.16
682.8  36270.33  5202.93  14.34
684.1  36705.24  5333.33  14.53
685.5  37104.21  5456.56  14.71
686.8  37507.62  5588.95  14.90
688.2  37862.83  5711.71  15.09
689.5  38000.96  5809.71  15.29
690.9  38124.79  5902.50  15.48
692.2  38229.60  5993.52  15.68
693.6  38334.37  6091.11  15.89
694.9  38335.34  6168.33  16.09
696.2  38393.33  6251.92  16.28
697.6  38453.39  6337.41  16.48
698.9  38522.88  6425.58  16.68
700.3  38613.54  6518.90  16.88
701.6  38716.02  6612.48  17.08
703.0  38828.83  6703.00  17.26
704.3  38882.19  6779.36  17.44
705.6  38895.39  6857.82  17.63
707.0  38949.12  6937.25  17.81
708.3  38885.46  6994.91  17.99
709.6  38817.35  7050.80  18.16
711.0  38702.88  7098.23  18.34
712.3  38573.15  7141.26  18.51
713.6  38531.64  7199.28  18.68
714.9  38462.14  7254.97  18.86
716.3  38461.08  7322.96  19.04
717.6  38479.84  7397.98  19.23
718.9  38424.85  7453.43  19.40
720.2  38251.08  7480.85  19.56
721.6  38113.53  7521.25  19.73
722.9  37945.16  7553.57  19.91
724.2  37714.27  7575.31  20.09
725.5  37534.96  7608.68  20.27
726.8  37360.68  7642.46  20.46
728.1  37271.09  7689.02  20.63
729.5  37167.13  7733.52  20.81
730.8  37093.13  7788.19  21.00
732.1  36996.92  7835.51  21.18
733.4  36936.39  7885.64  21.35
734.7  36864.47  7939.11  21.54
736.0  36851.62  8001.40  21.71
737.3  36774.45  8053.71  21.90
738.6  36845.76  8134.73  22.08
739.9  37000.34  8238.87  22.27
741.2  37119.81  8329.59  22.44
742.5  37372.03  8450.85  22.61
743.8  37768.50  8612.64  22.80
745.1  38387.22  8830.08  23.00
746.4  39127.73  9080.22  23.21
747.7  39918.22  9332.47  23.38
749.0  40672.12  9588.48  23.58
750.3  41122.66  9759.19  23.73
751.6  41047.35  9823.71  23.93
752.9  40630.59  9796.40  24.11
754.2  40176.47  9760.45  24.29
755.4  39652.21  9722.63  24.52
756.7  39478.17  9754.44  24.71
758.0  39495.60  9837.13  24.91
759.3  39730.28  9981.50  25.12
760.6  40061.56  10148.60  25.33
761.9  40384.10  10312.27  25.54
763.1  40567.56  10437.64  25.73
764.4  40796.65  10570.38  25.91
765.7  40953.25  10691.20  26.11
767.0  41079.80  10810.40  26.32
768.2  41207.04  10920.67  26.50
769.5  41279.98  11020.30  26.70
770.8  41469.61  11146.55  26.88
772.0  41501.32  11239.07  27.08
773.3  41583.65  11337.17  27.26
774.6  41708.58  11442.53  27.43
775.8  41815.15  11544.89  27.61
777.1  41846.51  11630.58  27.79
778.4  41799.94  11689.65  27.97
779.6  41775.90  11770.35  28.17
780.9  41704.00  11828.53  28.36
782.1  41523.21  11873.51  28.59
783.4  41558.40  11944.47  28.74
784.6  41567.36  12019.38  28.92
785.9  41861.56  12179.37  29.09
787.1  42409.87  12443.18  29.34
788.4  42854.47  12663.02  29.55
789.6  42849.18  12714.04  29.67
790.9  42483.96  12637.17  29.75
792.1  42011.92  12575.76  29.93
793.4  41570.15  12534.63  30.15
794.6  41283.15  12517.61  30.32
795.8  41024.39  12509.56  30.49
797.1  40758.68  12503.78  30.68
798.3  40551.64  12523.80  30.88
799.5  40444.72  12555.97  31.04
800.8  40323.21  12594.79  31.23
802.0  40187.32  12628.28  31.42
803.2  40033.64  12653.89  31.61
804.5  39942.72  12691.04  31.77
805.7  39829.66  12724.20  31.95
806.9  39715.93  12754.47  32.11
808.1  39632.97  12800.88  32.30
809.4  39553.39  12853.53  32.50
810.6  39489.45  12904.71  32.68
811.8  39474.39  12976.45  32.87
813.0  39504.71  13052.74  33.04
814.2  39525.61  13141.69  33.25
815.4  39644.33  13254.30  33.43
816.6  39709.73  13339.85  33.59
817.9  39791.57  13421.71  33.73
819.1  39719.87  13473.11  33.92
820.3  39621.11  13504.07  34.08
821.5  39546.25  13550.87  34.27
822.7  39480.04  13599.81  34.45
823.9  39499.25  13675.43  34.62
825.1  39541.96  13747.60  34.77
826.3  39583.35  13826.76  34.93
827.5  39640.56  13919.60  35.11
828.7  39708.48  14012.27  35.29
829.9  39767.03  14097.93  35.45
831.0  39870.82  14203.45  35.62
832.2  39993.87  14314.65  35.79
833.4  40076.64  14416.55  35.97
834.6  40148.44  14524.69  36.18
835.8  40238.10  14627.66  36.35
837.0  40328.28  14740.79  36.55
838.1  40500.72  14870.98  36.72
839.3  40601.19  14970.05  36.87
840.5  40716.87  15079.88  37.04
841.7  40854.11  15216.77  37.25
842.9  40980.73  15358.86  37.48
844.0  41100.82  15465.34  37.63
845.2  41245.09  15593.75  37.81
846.4  41368.25  15719.93  38.00
847.5  41564.18  15867.36  38.18
848.7  41743.64  16006.13  38.34
849.9  41936.76  16138.57  38.48
851.0  42020.98  16225.37  38.61
852.2  42107.61  16308.62  38.73
853.3  42066.96  16368.42  38.91
854.5  42098.11  16432.09  39.03
855.6  42095.43  16491.25  39.18
856.8  42111.00  16571.72  39.35
857.9  42111.88  16634.20  39.50
859.1  42240.60  16733.80  39.62
860.2  42245.56  16804.86  39.78
861.4  42273.83  16881.09  39.93
862.5  42309.54  16959.12  40.08
863.7  42384.63  17046.06  40.22
864.8  42387.10  17109.12  40.36
865.9  42333.82  17148.55  40.51
867.1  42372.33  17216.90  40.63
868.2  42368.54  17272.33  40.77
869.3  42393.50  17339.31  40.90
870.5  42342.80  17368.65  41.02
871.6  42318.48  17433.97  41.20
872.7  42385.23  17524.83  41.35
873.9  42404.90  17585.09  41.47
875.0  42391.36  17624.25  41.58
876.1  42363.75  17686.48  41.75
877.2  42397.32  17743.22  41.85
878.3  42381.77  17780.54  41.95
879.4  42397.70  17863.91  42.13
880.5  42451.56  17930.06  42.24
881.7  42410.55  17973.15  42.38
882.8  42454.72  18035.79  42.48
883.9  42482.63  18091.83  42.59
885.0  42446.04  18102.86  42.65
886.1  42420.10  18140.76  42.76
887.2  42295.80  18125.83  42.85
888.3  42201.80  18132.48  42.97
889.4  42117.30  18118.57  43.02
890.5  42026.34  18146.28  43.18
891.6  41981.69  18158.68  43.25
892.7  41962.31  18196.33  43.36
893.8  41981.79  18259.03  43.49
894.9  41952.35  18310.52  43.65
896.0  41968.71  18345.82  43.71
897.0  41952.48  18397.30  43.85
898.1  41951.64  18449.31  43.98
899.2  41983.30  18493.20  44.05
900.3  41907.57  18502.06  44.15
901.4  41820.39  18511.21  44.26
902.4  41828.99  18552.99  44.35
903.5  41775.96  18571.32  44.45
904.6  41798.96  18620.81  44.55
905.7  41805.42  18659.08  44.63
906.7  41815.90  18707.96  44.74
907.8  41839.20  18763.07  44.85
908.9  41746.38  18773.56  44.97
909.9  41734.69  18796.07  45.04
911.0  41681.88  18805.56  45.12
912.1  41602.05  18817.63  45.23
913.1  41535.52  18837.87  45.35
914.2  41457.24  18826.51  45.41
915.2  41368.59  18858.46  45.59
916.3  41436.15  18896.01  45.60
917.3  41410.15  18930.07  45.71
918.4  41310.50  18922.11  45.80
919.4  41328.17  18937.38  45.82
920.5  41309.67  18967.26  45.91
921.5  41323.66  19015.28  46.02
922.6  41255.80  19025.21  46.12
923.6  41303.54  19085.55  46.21
924.7  41344.50  19127.12  46.26
925.7  41333.16  19157.04  46.35
926.7  41356.90  19193.84  46.41
927.8  41415.30  19246.61  46.47
928.8  41570.85  19334.08  46.51
929.9  41658.93  19417.47  46.61
930.9  41879.39  19541.43  46.66
931.9  42070.56  19664.45  46.74
932.9  42412.10  19844.27  46.79
934.0  42452.50  19893.97  46.86
935.0  42440.57  19959.55  47.03
936.0  42488.02  19990.41  47.05
937.0  42429.47  20022.46  47.19
938.1  42380.86  20042.12  47.29
939.1  42337.65  20099.67  47.47
940.1  42429.30  20134.59  47.45
941.1  42615.86  20270.42  47.57
942.1  42903.92  20414.25  47.58
943.1  43057.09  20521.97  47.66
944.1  43342.63  20676.57  47.70
945.2  43356.60  20712.22  47.77
946.2  43482.48  20801.05  47.84
947.2  43549.00  20863.22  47.91
948.2  43743.16  20978.22  47.96
949.2  43840.88  21052.09  48.02
950.2  43906.25  21108.72  48.08
951.2  44010.96  21180.10  48.12
952.2  44061.91  21245.02  48.22
953.2  44318.14  21354.14  48.18
954.2  44380.80  21437.66  48.30
955.2  44428.35  21496.24  48.38
956.2  44460.20  21513.10  48.39
957.2  44542.35  21566.58  48.42
958.2  44649.94  21642.23  48.47
959.2  44705.25  21698.28  48.54
960.1  44813.66  21770.85  48.58
961.1  44928.76  21847.58  48.63
962.1  44958.75  21876.13  48.66
963.1  44986.01  21933.56  48.76
964.1  45106.16  22024.51  48.83
965.1  45270.70  22116.15  48.85
966.1  45207.41  22151.24  49.00
967.0  45355.66  22220.63  48.99
968.0  45441.48  22256.49  48.98
969.0  45453.60  22333.04  49.13
970.0  45557.64  22368.27  49.10
971.0  45615.57  22426.52  49.16
971.9  45699.86  22468.12  49.16
972.9  45781.93  22522.15  49.19
973.9  45829.88  22552.92  49.21
974.9  45973.78  22576.62  49.11
975.8  45979.65  22588.69  49.13
976.8  46106.16  22580.12  48.97
977.8  46097.80  22633.69  49.10
978.8  46103.70  22640.98  49.11
979.7  46387.55  22688.95  48.91
980.7  46405.76  22753.53  49.03
981.7  46694.84  22808.30  48.85
982.6  46857.76  22903.97  48.88
983.6  47433.79  23093.37  48.69
984.6  47818.98  23205.09  48.53
985.5  48063.24  23424.24  48.74
986.5  48770.77  23681.88  48.56
987.5  50043.63  24013.61  47.99
988.4  50895.90  24356.05  47.85
989.4  52431.75  24709.50  47.13
990.4  53425.02  25087.38  46.96
991.3  55387.31  25688.35  46.38
992.3  55950.90  25849.57  46.20
993.2  58118.31  26343.97  45.33
994.2  59457.94  26903.67  45.25
995.2  60710.63  27100.63  44.64
996.1  61737.77  27282.80  44.19
997.1  61885.85  27381.77  44.25
998.0  61668.00  27019.72  43.81
999.0  61787.86  27051.76  43.78
1000.0  62252.49  27326.10  43.90
1000.9  62564.91  27177.04  43.44
1001.9  61626.12  26542.48  43.07
1002.8  61885.09  26231.47  42.39
1003.8  61970.58  26679.35  43.05
1004.8  62064.96  26195.06  42.21
961.5  55881.62  24524.75  43.89
965.5  54589.44  24224.06  44.37
969.5  52393.79  23586.87  45.02
973.4  50126.74  22779.42  45.44
977.4  48345.52  22130.06  45.77
981.4  47464.01  21860.36  46.06
985.3  47176.98  21774.66  46.16
989.3  47304.75  21766.29  46.01
993.3  47508.66  21759.84  45.80
997.2  47541.75  21692.65  45.63
1001.2  47520.33  21662.16  45.59
1005.2  47455.76  21708.46  45.74
1009.1  47529.68  21813.32  45.89
1013.1  47663.39  21970.91  46.10
1017.1  47785.75  22096.91  46.24
1021.0  47816.50  22140.17  46.30
1025.0  47819.30  22175.63  46.37
1029.0  47652.00  22152.77  46.49
1032.9  47495.63  22142.60  46.62
1036.9  47497.16  22194.66  46.73
1040.9  47608.97  22318.04  46.88
1044.8  47827.54  22481.32  47.00
1048.8  48004.98  22618.12  47.12
1052.7  48133.54  22737.23  47.24
1056.7  48188.20  22805.86  47.33
1060.7  48194.60  22861.24  47.44
1064.6  48198.22  22922.04  47.56
1068.6  48113.17  22914.29  47.63
1072.5  48026.55  22912.44  47.71
1076.5  47975.49  22942.25  47.82
1080.4  47966.69  22971.06  47.89
1084.4  48069.59  23035.83  47.92
1088.3  48170.15  23116.06  47.99
1092.3  48152.58  23130.68  48.04
1096.2  48142.77  23139.32  48.06
1100.2  48183.64  23185.13  48.12
1104.1  48079.94  23159.76  48.17
1108.1  48035.13  23143.14  48.18
1112.0  47943.86  23095.50  48.17
1116.0  47742.57  22983.79  48.14
1119.9  47581.47  22880.69  48.09
1123.9  47666.30  22892.91  48.03
1127.8  47639.04  22845.44  47.96
1131.8  47617.38  22793.96  47.87
1135.7  47659.94  22754.16  47.74
1139.6  47675.62  22681.55  47.57
1143.6  47638.82  22574.09  47.39
1147.5  47616.88  22453.28  47.15
1151.4  47500.80  22293.21  46.93
1155.4  47513.75  22232.80  46.79
1159.3  47522.52  22200.20  46.72
1163.2  47363.89  22086.17  46.63
1167.2  47347.50  22030.60  46.53
1171.1  47369.57  22001.32  46.45
1175.0  47314.40  21942.05  46.38
1179.0  47268.08  21903.17  46.34
1182.9  47358.68  21924.99  46.30
1186.8  47350.70  21899.74  46.25
1190.7  47139.70  21777.14  46.20
1194.7  46883.87  21645.49  46.17
1198.6  46652.76  21548.84  46.19
1202.5  46480.48  21491.94  46.24
1206.4  46340.80  21460.00  46.31
1210.3  46236.01  21450.11  46.39
1214.2  46114.66  21450.79  46.52
1218.2  45952.68  21434.84  46.65
1222.1  45800.88  21427.24  46.78
1226.0  45686.61  21436.77  46.92
1229.9  45598.02  21442.74  47.03
1233.8  45484.04  21437.96  47.13
1237.7  45416.66  21430.21  47.19
1241.6  45332.53  21407.03  47.22
1245.5  45166.97  21357.46  47.29
1249.4  45023.84  21325.40  47.36
1253.3  44894.25  21290.70  47.42
1257.2  44816.00  21263.18  47.45
1261.1  44716.86  21230.43  47.48
1265.0  44587.73  21184.80  47.51
1268.9  44400.64  21106.28  47.54
1272.8  44460.00  21138.45  47.54
1276.7  44653.74  21230.21  47.54
1280.6  44733.81  21268.39  47.54
1284.5  44649.07  21224.59  47.54
1288.4  44631.63  21202.55  47.51
1292.3  44511.50  21127.33  47.46
1296.2  44360.33  21035.31  47.42
1300.1  44197.71  20916.97  47.33
1303.9  43963.66  20742.26  47.18
1307.8  43715.49  20565.18  47.04
1311.7  43464.03  20388.58  46.91
1315.6  43214.30  20202.46  46.75
1319.5  42962.15  19992.67  46.54
1323.3  42734.84  19786.75  46.30
1327.2  42525.95  19571.83  46.02
1331.1  42285.13  19336.74  45.73
1335.0  41985.32  19061.02  45.40
1338.8  41775.29  18800.06  45.00
1342.7  41609.18  18528.53  44.53
1346.5  41242.98  18123.51  43.94
1350.4  40931.78  17717.77  43.29
1354.3  40517.39  17272.97  42.63
1358.1  40047.65  16860.65  42.10
1362.0  39764.09  16604.47  41.76
1365.8  39670.89  16481.87  41.55
1369.7  39786.92  16434.15  41.31
1373.5  39741.56  16210.18  40.79
1377.4  39487.75  15775.84  39.95
1381.2  39276.49  15323.02  39.01
1385.1  39242.56  14930.28  38.05
1389.0  39129.70  14439.24  36.90
1392.8  38925.66  13811.33  35.48
1396.6  38773.68  13155.30  33.93
1400.5  38560.99  12479.56  32.36
1404.3  38397.74  11843.00  30.84
1408.2  38363.03  11307.21  29.47
1412.0  38325.01  10837.37  28.28
1415.8  38359.09  10470.18  27.30
1419.6  38319.36  10157.59  26.51
1423.5  38299.37  9915.34  25.89
1427.3  38266.05  9735.43  25.44
1431.1  38248.58  9606.13  25.11
1434.9  38159.15  9490.89  24.87
1438.8  38104.90  9419.74  24.72
1442.6  38084.31  9390.48  24.66
1446.4  37958.74  9355.23  24.65
1450.2  37871.04  9335.24  24.65
1454.0  37772.76  9319.88  24.67
1457.8  37752.26  9345.06  24.75
1461.6  37732.17  9371.37  24.84
1465.4  37609.21  9383.52  24.95
1469.2  37426.03  9410.16  25.14
1473.0  37290.43  9467.77  25.39
1476.8  37245.30  9567.60  25.69
1480.7  37186.44  9678.15  26.03
1484.4  37061.40  9778.16  26.38
1488.2  36961.08  9887.60  26.75
1492.0  36836.53  9994.99  27.13
1495.8  36720.78  10099.49  27.50
1499.6  36605.30  10195.49  27.85
1503.4  36479.87  10283.03  28.19
1507.2  36356.05  10363.17  28.50
1510.9  36204.04  10435.72  28.82
1514.7  36047.88  10505.84  29.14
1518.5  35919.58  10587.86  29.48
1522.3  35781.38  10654.18  29.78
1526.0  35674.52  10724.03  30.06
1529.8  35609.17  10814.85  30.37
1533.6  35484.33  10874.50  30.65
1537.3  35352.32  10921.35  30.89
1541.1  35225.58  10973.70  31.15
1544.8  35097.60  11028.80  31.42
1548.6  34949.35  11076.83  31.69
1552.4  34850.72  11131.09  31.94
1556.1  34790.76  11186.42  32.15
1559.9  34705.82  11235.84  32.37
1563.6  34578.39  11272.90  32.60
1567.3  34459.02  11304.70  32.81
1571.1  34243.92  11291.26  32.97
1574.8  34100.68  11301.65  33.14
1578.6  34000.34  11317.53  33.29
1582.3  33854.52  11319.08  33.43
1586.0  33716.51  11329.89  33.60
1589.8  33582.95  11337.07  33.76
1593.5  33431.04  11340.64  33.92
1597.2  33294.67  11348.73  34.09
1600.9  33154.19  11338.95  34.20
1604.7  33000.40  11325.34  34.32
1608.4  32856.34  11330.66  34.49
1612.1  32695.22  11322.13  34.63
1615.8  32545.96  11305.79  34.74
1619.5  32465.11  11305.31  34.82
1623.2  32316.22  11287.86  34.93
1626.9  32130.25  11251.81  35.02
1630.6  31953.68  11207.83  35.08
1634.3  31816.04  11171.97  35.11
1638.0  31668.49  11124.35  35.13
1641.7  31487.82  11063.61  35.14
1645.4  31299.16  10991.65  35.12
1649.1  31105.38  10908.16  35.07
1652.8  30949.76  10822.55  34.97
1656.4  30780.36  10722.09  34.83
1660.1  30613.88  10634.51  34.74
1663.8  30416.03  10535.72  34.64
1667.5  30257.50  10459.15  34.57
1671.1  30134.40  10394.42  34.49
1674.8  29937.06  10314.97  34.46
1678.5  29873.87  10294.49  34.46
1682.1  29892.23  10281.67  34.40
1685.8  29901.92  10263.79  34.32
1689.5  29795.07  10193.98  34.21
1693.1  29653.44  10101.73  34.07
1696.8  29511.75  10006.67  33.91
1700.4  29358.15  9910.71  33.76
1704.0  29237.42  9814.38  33.57
1707.7  28983.16  9667.42  33.36
1711.3  28689.26  9505.03  33.13
1715.0  28479.20  9375.11  32.92
1718.6  28311.14  9269.33  32.74
1722.2  28171.19  9179.30  32.58
1725.9  28024.58  9097.81  32.46
1729.5  27888.80  9033.43  32.39
1733.1  27770.82  8989.85  32.37
1736.7  27655.67  8951.47  32.37
1740.3  27487.42  8882.26  32.31
1744.0  27395.86  8831.66  32.24
1747.5  27255.01  8756.64  32.13
1751.2  27041.09  8658.53  32.02
1754.8  26881.34  8582.03  31.93
1758.4  26750.86  8522.80  31.86
1762.0  26572.85  8457.86  31.83
1765.5  26446.23  8409.28  31.80
1769.1  26402.40  8396.00  31.80
1772.7  26328.38  8371.82  31.80
1776.3  26208.92  8327.87  31.77
1779.9  26081.92  8277.14  31.74
1783.5  26027.60  8247.65  31.69
1787.0  25897.14  8200.88  31.67
1790.6  25747.79  8140.66  31.62
1794.2  25651.68  8093.60  31.55
1797.8  25552.23  8048.69  31.50
1801.3  25471.95  8011.26  31.45
1804.9  25318.13  7954.63  31.42
1808.4  25235.40  7918.04  31.38
1812.0  25102.89  7854.50  31.29
1815.5  24947.72  7790.49  31.23
1819.1  24745.29  7723.61  31.21
1822.6  24588.72  7673.87  31.21
1826.2  24468.62  7624.79  31.16
1829.7  24298.19  7553.03  31.08
1833.2  24066.25  7464.37  31.02
1836.8  23846.10  7396.64  31.02
1840.3  23701.28  7383.59  31.15
1843.8  23605.26  7388.22  31.30
1847.3  23552.23  7405.69  31.44
1850.8  23482.37  7418.88  31.59
1854.3  23328.90  7387.03  31.66
1857.8  23249.20  7316.40  31.47
1861.3  23245.10  7166.05  30.83
1864.8  23154.55  6894.82  29.78
1868.3  22923.75  6524.81  28.46
1871.8  22725.12  6172.16  27.16
1875.3  22663.55  5896.65  26.02
1878.8  22668.35  5612.31  24.76
1882.3  22613.87  5258.56  23.25
1885.8  22446.65  4877.49  21.73
1889.3  22245.45  4487.46  20.17
1892.7  22073.02  4146.62  18.79
1896.2  21956.57  3868.45  17.62
1899.7  21800.31  3677.07  16.87
1903.1  21719.54  3609.15  16.62
1906.6  21807.87  3653.37  16.75
1910.0  22098.88  3912.47  17.70
1913.5  22634.73  4380.32  19.35
1917.0  23151.98  4935.65  21.32
1920.4  23436.08  5454.55  23.27
1923.8  23677.97  5815.64  24.56
1871.2  20787.15  4799.97  23.09
1873.9  20907.54  4739.19  22.67
1876.7  21048.38  4633.04  22.01
1879.5  21252.88  4473.79  21.05
1882.3  20993.42  4113.88  19.60
1885.1  20851.78  3798.55  18.22
1887.8  20921.79  3540.57  16.92
1890.6  20723.54  3207.03  15.48
1893.4  20650.67  2977.33  14.42
1896.2  20581.86  2695.65  13.10
1898.9  20516.13  2468.70  12.03
1901.7  20380.18  2274.92  11.16
1904.5  20546.36  2145.98  10.44
1907.2  20463.00  2075.75  10.14
1910.0  20358.58  1977.20  9.71
1912.7  20364.96  1909.59  9.38
1915.5  20273.08  1886.69  9.31
1918.2  20210.43  1858.35  9.19
1921.0  20079.87  1812.00  9.02
1923.7  20126.73  1824.25  9.06
1926.5  20096.89  1823.73  9.07
1929.2  20080.15  1823.52  9.08
1932.0  20066.00  1855.97  9.25
1934.7  20016.92  1874.96  9.37
1937.4  19925.11  1859.97  9.33
1940.2  19881.39  1894.20  9.53
1942.9  19959.98  1937.64  9.71
1945.6  19965.22  1955.95  9.80
1948.3  19894.11  1984.50  9.98
1951.1  19862.99  1993.62  10.04
1953.8  19866.00  2013.00  10.13
1956.5  19752.03  2049.58  10.38
1959.2  19805.76  2095.99  10.58
1961.9  19837.86  2131.69  10.75
1964.6  19745.08  2143.99  10.86
1967.3  19784.70  2196.32  11.10
1970.0  19621.84  2225.92  11.34
1972.8  19538.55  2259.20  11.56
1975.5  19602.81  2312.07  11.79
1978.2  19540.64  2336.97  11.96
1980.9  19419.73  2365.04  12.18
1983.5  19352.05  2385.80  12.33
1986.2  19366.05  2424.03  12.52
1988.9  19348.59  2470.59  12.77
1991.6  19202.00  2487.27  12.95
1994.3  19065.89  2492.63  13.07
1997.0  19096.32  2559.44  13.40
1999.7  19065.00  2605.56  13.67
2002.3  19034.90  2614.89  13.74
2005.0  18965.86  2648.45  13.96
2007.7  18877.00  2673.64  14.16
2010.4  18811.60  2686.56  14.28
2013.0  18774.16  2717.92  14.48
2015.7  18678.28  2735.58  14.65
2018.4  18548.96  2742.11  14.78
2021.0  18504.50  2782.33  15.04
2023.7  18401.60  2785.21  15.14
2026.4  18333.68  2784.75  15.19
2029.0  18267.40  2811.67  15.39
2031.7  18144.97  2797.89  15.42
2034.3  18142.15  2806.34  15.47
2037.0  18035.71  2817.82  15.62
2039.6  17974.39  2817.08  15.67
2042.3  17908.74  2817.69  15.73
2044.9  17825.78  2817.16  15.80
2047.5  17820.17  2819.96  15.82
2050.2  17715.60  2812.13  15.87
2052.8  17679.20  2828.93  16.00
2055.4  17538.43  2819.41  16.08
2058.1  17416.00  2789.73  16.02
2060.7  17404.47  2795.93  16.06
2063.3  17299.63  2788.53  16.12
2065.9  17230.17  2776.78  16.12
2068.6  17165.96  2788.88  16.25
2071.2  17119.44  2799.30  16.35
2073.8  17041.85  2773.15  16.27
2076.4  16999.98  2778.60  16.34
2079.0  17011.74  2801.57  16.47
2081.6  16984.09  2793.64  16.45
2084.2  16930.00  2794.39  16.51
2086.8  16834.24  2768.00  16.44
2089.4  16742.01  2750.62  16.43
2092.1  16637.33  2759.66  16.59
2094.7  16574.28  2753.44  16.61
2097.2  16549.50  2757.78  16.66
2099.8  16541.98  2766.01  16.72
2102.4  16400.35  2743.82  16.73
2105.0  16267.80  2713.20  16.68
2107.6  16238.35  2709.71  16.69
2110.2  16217.39  2713.79  16.73
2112.8  16200.74  2706.80  16.71
2115.3  16182.65  2720.20  16.81
2117.9  16188.40  2727.57  16.85
2120.5  16181.17  2708.04  16.74
2123.1  16113.83  2709.53  16.81
2125.6  16056.05  2700.90  16.82
2128.2  15953.26  2673.02  16.76
2130.8  15859.35  2679.30  16.89
2133.3  15825.33  2678.14  16.92
2135.9  15723.21  2641.62  16.80
2138.4  15584.92  2636.28  16.92
2141.0  15487.96  2632.75  17.00
2143.6  15482.13  2626.77  16.97
2146.1  15358.67  2610.22  17.00
2148.7  15182.57  2578.40  16.98
2151.2  15188.80  2608.71  17.18
2153.8  15199.37  2622.51  17.25
2156.3  15064.95  2614.68  17.36
2158.8  14994.07  2624.53  17.50
2161.4  14983.43  2625.00  17.52
2163.9  14894.98  2614.19  17.55
2166.4  14806.99  2607.78  17.61
2169.0  14777.42  2629.46  17.79
2171.5  14688.72  2619.61  17.83
2174.0  14586.43  2604.12  17.85
2176.5  14576.25  2628.21  18.03
2179.1  14537.32  2625.17  18.06
2181.6  14435.75  2611.78  18.09
2184.1  14405.16  2618.00  18.17
2186.6  14458.30  2634.11  18.22
2189.1  14358.33  2612.94  18.20
2191.6  14308.00  2610.07  18.24
2194.1  14339.64  2642.94  18.43
2196.6  14340.73  2639.21  18.40
2199.2  14399.84  2674.39  18.57
2201.7  14323.09  2681.48  18.72
2204.1  14264.18  2663.23  18.67
2206.6  14278.44  2683.11  18.79
2209.1  14246.74  2687.35  18.86
2211.6  14236.93  2681.16  18.83
2214.1  14172.61  2696.65  19.03
2216.6  14103.21  2710.74  19.22
2219.1  14137.40  2694.29  19.06
2221.6  14080.86  2686.24  19.08
2224.0  14024.61  2675.89  19.08
2226.5  13983.38  2649.55  18.95
2229.0  13981.89  2668.47  19.09
2231.5  13918.22  2636.32  18.94
2233.9  13896.33  2591.21  18.65
2236.4  13868.98  2601.64  18.76
2238.9  13826.00  2587.21  18.71
2241.3  13828.76  2544.47  18.40
2243.8  13758.80  2528.92  18.38
2246.2  13610.98  2487.53  18.28
2248.7  13571.61  2429.70  17.90
2251.2  13563.12  2428.99  17.91
2253.6  13482.24  2401.28  17.81
2256.1  13474.56  2356.48  17.49
2258.5  13495.78  2337.01  17.32
2260.9  13407.16  2293.33  17.11
2263.4  13372.75  2262.06  16.92
2265.8  13367.17  2256.71  16.88
2268.3  13288.30  2234.60  16.82
2270.7  13342.05  2209.60  16.56
2273.1  13272.94  2206.41  16.62
2275.6  13194.24  2174.72  16.48
2278.0  13232.60  2138.17  16.16
2280.4  13249.81  2142.24  16.17
2282.8  13117.21  2084.25  15.89
2285.3  13103.68  2056.93  15.70
2287.7  13191.09  2072.26  15.71
2290.1  13097.39  2020.15  15.42
2292.5  13047.88  2001.36  15.34
2294.9  13056.31  1983.74  15.19
2297.3  12972.40  1945.86  15.00
2299.7  12875.52  1912.31  14.85
2302.1  12826.01  1900.01  14.81
2304.5  12696.88  1862.00  14.67
2306.9  12602.80  1822.80  14.46
2309.3  12519.08  1841.62  14.71
2311.7  12473.65  1844.75  14.79
2314.1  12315.17  1807.70  14.68
2316.5  12229.76  1799.27  14.71
2318.9  12290.12  1818.42  14.80
2321.3  12265.32  1807.84  14.74
2323.7  12235.57  1794.34  14.66
2326.1  12214.93  1779.92  14.57
2328.4  12270.09  1780.58  14.51
2330.8  12319.08  1794.15  14.56
2333.2  12235.57  1757.16  14.36
2335.6  12168.54  1713.26  14.08
2337.9  12202.83  1709.67  14.01
2340.3  12141.58  1673.74  13.79
2342.7  12039.09  1654.59  13.74
2345.0  12013.82  1684.51  14.02
2347.4  11993.50  1668.83  13.91
2349.7  11798.34  1609.00  13.64
2352.1  11775.76  1638.14  13.91
2354.4  11820.42  1649.13  13.95
2356.8  11728.38  1600.05  13.64
2359.2  11704.33  1578.78  13.49
2361.5  11645.74  1592.62  13.68
2363.8  11633.53  1582.47  13.60
2366.2  11660.03  1557.91  13.36
2368.5  11627.85  1569.37  13.50
2370.9  11603.83  1543.30  13.30
2373.2  11533.95  1524.37  13.22
2375.5  11398.48  1514.37  13.29
2377.9  11373.04  1472.34  12.95
2380.2  11408.35  1501.26  13.16
2382.5  11308.30  1488.78  13.17
2384.8  11261.28  1419.84  12.61
2387.2  11252.00  1439.32  12.79
2389.5  11242.29  1435.39  12.77
2391.8  11232.13  1413.33  12.58
2394.1  11132.13  1418.71  12.74
2396.4  11089.46  1382.15  12.46
2398.7  11160.99  1349.45  12.09
2401.0  11096.58  1351.64  12.18
2403.3  10926.12  1324.68  12.12
2405.6  10921.36  1312.90  12.02
2407.9  10891.74  1297.59  11.91
2410.2  10793.71  1268.37  11.75
2412.5  10752.81  1273.80  11.85
2414.8  10737.29  1263.21  11.76
2417.1  10694.97  1221.60  11.42
2419.4  10638.82  1212.19  11.39
2421.7  10597.44  1200.27  11.33
2424.0  10571.95  1190.51  11.26
2426.2  10576.95  1178.78  11.14
2428.5  10508.39  1186.23  11.29
2430.8  10485.80  1159.03  11.05
2433.1  10443.79  1108.18  10.61
2435.4  10361.94  1137.65  10.98
2437.6  10328.37  1091.03  10.56
2439.9  10224.92  1046.26  10.23
2442.2  10193.49  1095.95  10.75
2444.4  10223.13  1075.92  10.52
2446.7  10173.28  1025.89  10.08
2448.9  10197.11  1010.63  9.91
2451.2  10173.72  1003.27  9.86
2453.4  10028.37  998.42  9.96
2455.7  9998.26  979.15  9.79
2457.9  9908.42  972.73  9.82
2460.2  9870.17  935.03  9.47
2462.4  9896.64  915.20  9.25
2464.7  9834.69  946.25  9.62
2466.9  9751.98  915.92  9.39
2469.2  9722.50  898.79  9.24
2471.4  9624.29  866.58  9.00
2473.6  9553.77  832.42  8.71
2475.9  9536.85  855.70  8.97
2478.1  9427.70  808.41  8.57
2480.3  9377.37  786.67  8.39
2482.5  9321.43  826.82  8.87
2484.8  9240.44  769.43  8.33
2487.0  9258.33  777.70  8.40
2489.2  9302.30  766.40  8.24
2491.4  9183.58  732.64  7.98
2493.6  9147.34  770.77  8.43
2495.8  9177.35  733.77  8.00
2498.0  9103.79  710.68  7.81
2500.2  9132.70  718.93  7.87
2502.4  9403.92  763.68  8.12
2504.6  9512.07  820.06  8.62
2506.8  9585.80  854.02  8.91
