/*** Spectra Vista SIG Data ***/
name= GS4.sig
comm= SIG file reprocesed for matching/overlap;Averaged Ref/Tar of files: GD5S10,GD5S11,GD5S12
data=
346.4  366.28  143.96  39.30
347.9  400.03  141.82  35.45
349.5  432.12  149.76  34.66
351.1  468.00  152.67  32.62
352.6  496.51  155.60  31.34
354.2  520.33  163.62  31.45
355.7  575.84  169.72  29.47
357.3  598.14  173.37  28.98
358.8  616.87  185.93  30.14
360.4  668.33  185.26  27.72
361.9  686.05  182.48  26.60
363.5  715.01  192.98  26.99
365.1  743.78  196.03  26.36
366.6  778.54  195.64  25.13
368.2  824.27  199.21  24.17
369.7  873.39  198.08  22.68
371.3  928.49  205.46  22.13
372.8  977.74  208.50  21.32
374.4  1016.27  217.16  21.37
375.9  1052.58  222.43  21.13
377.4  1084.71  224.64  20.71
379.0  1129.79  230.84  20.43
380.5  1157.14  233.07  20.14
382.1  1186.43  232.85  19.63
383.6  1234.64  234.74  19.01
385.2  1293.88  240.17  18.56
386.7  1345.63  245.48  18.24
388.3  1410.38  258.71  18.34
389.8  1464.46  270.47  18.47
391.3  1527.57  281.84  18.45
392.9  1567.60  298.91  19.07
394.4  1609.87  311.79  19.37
395.9  1662.63  328.65  19.77
397.5  1749.05  345.39  19.75
399.0  1827.74  351.02  19.21
400.6  1876.29  357.71  19.06
402.1  1904.04  353.63  18.57
403.6  1943.17  360.58  18.56
405.1  1994.81  369.25  18.51
406.7  2061.92  384.68  18.66
408.2  2135.06  406.00  19.02
409.7  2198.56  424.70  19.32
411.3  2272.05  434.83  19.14
412.8  2335.64  455.36  19.50
414.3  2399.77  476.44  19.85
415.8  2475.00  490.00  19.80
417.4  2547.71  506.68  19.89
418.9  2612.23  519.83  19.90
420.4  2658.25  533.40  20.07
421.9  2705.56  540.79  19.99
423.5  2743.63  549.81  20.04
425.0  2788.02  560.98  20.12
426.5  2844.45  569.32  20.02
428.0  2917.63  584.55  20.04
429.5  3009.90  598.56  19.89
431.1  3112.45  622.30  19.99
432.6  3227.88  646.47  20.03
434.1  3329.29  667.59  20.05
435.6  3423.98  687.57  20.08
437.1  3517.80  710.58  20.20
438.6  3607.74  724.43  20.08
440.1  3694.39  748.33  20.26
441.6  3790.73  771.10  20.34
443.1  3873.83  790.56  20.41
444.7  3959.99  818.44  20.67
446.2  4024.76  842.84  20.94
447.7  4101.41  862.71  21.03
449.2  4174.20  885.60  21.22
450.7  4238.00  901.33  21.27
452.2  4313.18  917.78  21.28
453.7  4393.64  946.15  21.53
455.2  4491.99  976.72  21.74
456.7  4618.24  1018.22  22.05
458.2  4761.06  1062.72  22.32
459.7  4899.13  1105.77  22.57
461.2  5044.37  1146.54  22.73
462.7  5165.05  1189.75  23.03
464.2  5287.79  1228.79  23.24
465.7  5408.14  1267.44  23.44
467.2  5518.98  1300.53  23.56
468.7  5631.00  1339.20  23.78
470.2  5705.20  1375.02  24.10
471.7  5821.13  1409.80  24.22
473.2  6011.22  1434.67  23.87
474.6  6153.75  1451.73  23.59
476.1  6204.18  1468.17  23.66
477.6  6220.94  1484.83  23.87
479.1  6250.52  1502.47  24.04
480.6  6293.37  1521.61  24.18
482.1  6374.96  1547.01  24.27
483.6  6474.12  1586.97  24.51
485.1  6599.29  1632.10  24.73
486.6  6739.10  1687.70  25.04
488.0  6898.13  1753.70  25.42
489.5  7058.36  1824.73  25.85
491.0  7224.81  1904.47  26.36
492.5  7392.87  1984.82  26.85
494.0  7557.79  2075.80  27.47
495.4  7702.20  2156.88  28.00
496.9  7844.83  2249.60  28.68
498.4  7990.29  2338.81  29.27
499.9  8131.50  2435.42  29.95
501.4  8263.45  2532.81  30.65
502.8  8392.79  2629.92  31.34
504.3  8499.60  2726.16  32.07
505.8  8611.18  2823.85  32.79
507.2  8674.01  2918.80  33.65
508.7  8728.20  3001.41  34.39
510.2  8764.92  3084.54  35.19
511.6  8789.76  3160.77  35.96
513.1  8840.43  3245.57  36.71
514.6  8904.34  3337.74  37.48
516.0  8958.85  3425.73  38.24
517.5  9056.55  3536.12  39.04
519.0  9171.31  3656.41  39.87
520.5  9287.32  3778.12  40.68
521.9  9437.16  3918.38  41.52
523.4  9612.27  4062.36  42.26
524.8  9785.79  4208.92  43.01
526.3  9984.58  4366.69  43.73
527.8  10184.06  4522.20  44.40
529.2  10366.76  4670.02  45.05
530.7  10567.61  4826.04  45.67
532.1  10746.40  4975.09  46.30
533.6  10959.02  5130.88  46.82
535.0  11168.56  5288.28  47.35
536.5  11376.00  5449.82  47.91
538.0  11592.92  5611.51  48.40
539.4  11785.91  5773.21  48.98
540.9  12037.93  5942.16  49.36
542.3  12246.63  6092.25  49.75
543.8  12400.56  6207.17  50.06
545.2  12445.48  6286.93  50.52
546.6  12442.01  6341.22  50.97
548.1  12455.19  6402.16  51.40
549.5  12460.55  6451.14  51.77
551.0  12456.77  6495.81  52.15
552.4  12484.13  6550.55  52.47
553.9  12491.52  6593.17  52.78
555.3  12509.64  6643.96  53.11
556.8  12569.08  6713.39  53.41
558.2  12630.94  6788.48  53.74
559.6  12713.51  6869.55  54.03
561.1  12831.00  6971.90  54.34
562.5  12959.42  7083.91  54.66
564.0  13129.35  7222.32  55.01
565.4  13288.41  7353.01  55.33
566.8  13487.87  7510.05  55.68
568.3  13678.39  7657.45  55.98
569.7  13879.32  7811.01  56.28
571.1  14074.77  7955.55  56.52
572.6  14269.77  8103.67  56.79
574.0  14463.08  8246.92  57.02
575.4  14650.03  8385.08  57.24
576.9  14818.07  8517.20  57.48
578.3  14977.46  8641.25  57.70
579.7  15131.24  8767.72  57.94
581.1  15254.19  8878.42  58.20
582.6  15387.18  8999.32  58.49
584.0  15508.86  9103.84  58.70
585.4  15681.05  9225.69  58.83
586.8  15909.04  9379.62  58.96
588.3  16162.38  9533.47  58.99
589.7  16371.81  9672.62  59.08
591.1  16519.39  9769.96  59.14
592.5  16589.78  9833.73  59.28
594.0  16627.80  9885.22  59.45
595.4  16637.76  9906.50  59.54
596.8  16651.64  9936.78  59.67
598.2  16659.51  9958.07  59.77
599.6  16659.36  9977.40  59.89
601.0  16705.59  10015.85  59.96
602.4  16752.94  10052.22  60.00
603.9  16822.23  10104.72  60.07
605.3  16905.11  10165.48  60.13
606.7  16973.10  10217.28  60.20
608.1  17114.04  10304.93  60.21
609.5  17255.15  10400.58  60.28
610.9  17434.91  10512.03  60.29
612.3  17598.49  10614.71  60.32
613.7  17818.60  10745.28  60.30
615.1  17967.42  10827.86  60.26
616.5  18122.06  10907.58  60.19
617.9  18356.64  11050.63  60.20
619.3  18578.68  11194.12  60.25
620.7  18848.67  11379.07  60.37
622.1  19119.58  11466.15  59.97
623.5  19414.06  11493.07  59.20
624.9  19741.18  11494.18  58.22
626.3  19952.52  11433.67  57.30
627.7  19741.37  11234.82  56.91
629.1  19544.02  11189.55  57.25
630.5  19457.12  11258.97  57.87
631.9  19461.81  11388.53  58.52
633.3  19457.49  11535.61  59.29
634.7  19533.17  11721.76  60.01
636.1  19566.68  11837.75  60.50
637.5  19597.55  11923.06  60.84
638.9  19677.50  12031.30  61.14
640.2  19731.43  12124.22  61.45
641.6  19754.28  12186.41  61.69
643.0  19715.36  12228.61  62.03
644.4  19707.26  12268.15  62.25
645.8  19650.11  12268.51  62.43
647.2  19716.78  12336.17  62.57
648.5  19765.84  12387.63  62.67
649.9  19671.60  12370.46  62.88
651.3  19608.23  12388.58  63.18
652.7  19503.68  12372.94  63.44
654.1  19390.95  12139.28  62.60
655.5  19238.75  11839.35  61.54
656.8  19118.09  11546.91  60.40
658.2  19225.93  11421.43  59.41
659.6  19449.31  11382.74  58.53
660.9  19643.18  11325.92  57.66
662.3  19825.21  11264.25  56.82
663.7  20008.80  11193.84  55.94
665.0  20165.89  11121.38  55.15
666.4  20328.89  11061.24  54.41
667.8  20535.62  11037.82  53.75
669.1  20711.76  11005.37  53.14
670.5  20914.18  11003.08  52.61
671.9  21055.86  10981.73  52.16
673.2  21237.33  11005.92  51.82
674.6  21400.77  11055.35  51.66
676.0  21596.49  11143.97  51.60
677.3  21793.24  11262.44  51.68
678.7  21992.69  11416.63  51.91
680.0  22269.19  11649.43  52.31
681.4  22542.00  11939.32  52.96
682.8  22829.63  12291.07  53.84
684.1  23112.18  12718.68  55.03
685.5  23364.31  13179.79  56.41
686.8  23617.23  13692.69  57.98
688.2  23841.32  14216.20  59.63
689.5  23927.84  14682.08  61.36
690.9  23997.39  15153.98  63.15
692.2  24047.78  15607.70  64.90
693.6  24110.83  16070.31  66.65
694.9  24095.99  16460.07  68.31
696.2  24121.97  16844.63  69.83
697.6  24149.95  17186.77  71.17
698.9  24174.48  17527.14  72.50
700.3  24215.57  17851.62  73.72
701.6  24264.40  18160.08  74.84
703.0  24323.35  18434.54  75.79
704.3  24329.34  18659.40  76.70
705.6  24327.41  18842.92  77.46
707.0  24334.75  19012.87  78.13
708.3  24282.08  19108.54  78.69
709.6  24223.21  19194.66  79.24
711.0  24124.28  19228.13  79.70
712.3  24015.02  19254.73  80.18
713.6  23977.17  19332.27  80.63
714.9  23907.38  19366.06  81.00
716.3  23880.58  19433.09  81.38
717.6  23876.83  19511.62  81.72
718.9  23805.06  19515.98  81.98
720.2  23675.16  19456.64  82.18
721.6  23576.15  19421.44  82.38
722.9  23446.45  19368.65  82.61
724.2  23274.82  19286.42  82.86
725.5  23133.68  19238.86  83.16
726.8  23009.81  19163.18  83.28
728.1  22933.91  19117.37  83.36
729.5  22856.87  19082.19  83.49
730.8  22796.53  19059.57  83.61
732.1  22719.29  19027.09  83.75
733.4  22660.56  19008.26  83.88
734.7  22602.67  18977.96  83.96
736.0  22569.89  18984.40  84.11
737.3  22520.76  18971.56  84.24
738.6  22554.56  19040.31  84.42
739.9  22633.16  19186.76  84.77
741.2  22698.59  19283.27  84.95
742.5  22841.25  19458.51  85.19
743.8  23091.34  19739.34  85.48
745.1  23491.07  20140.18  85.74
746.4  23957.57  20584.02  85.92
747.7  24466.55  21003.19  85.84
749.0  24948.63  21389.05  85.73
750.3  25229.30  21578.11  85.53
751.6  25175.69  21510.54  85.44
752.9  24925.64  21310.20  85.50
754.2  24630.59  21097.61  85.66
755.4  24314.44  20893.11  85.93
756.7  24210.69  20864.63  86.18
758.0  24235.24  20942.42  86.41
759.3  24394.18  21147.93  86.69
760.6  24621.52  21416.27  86.98
761.9  24823.09  21658.73  87.25
763.1  24955.30  21810.33  87.40
764.4  25125.21  21988.79  87.52
765.7  25257.38  22132.93  87.63
767.0  25349.99  22252.24  87.78
768.2  25431.84  22358.79  87.92
769.5  25509.93  22446.14  87.99
770.8  25646.87  22586.10  88.07
772.0  25674.66  22653.49  88.23
773.3  25762.96  22742.16  88.27
774.6  25839.71  22857.15  88.46
775.8  25921.43  22942.27  88.51
777.1  25948.26  23002.08  88.65
778.4  25918.05  22984.81  88.68
779.6  25945.86  23026.13  88.75
780.9  25904.00  23032.00  88.91
782.1  25811.51  22998.77  89.10
783.4  25819.04  23029.76  89.20
784.6  25849.06  23082.33  89.30
785.9  26028.56  23334.72  89.65
787.1  26416.14  23723.29  89.81
788.4  26716.91  23956.85  89.67
789.6  26732.54  23844.38  89.20
790.9  26499.75  23545.41  88.85
792.1  26215.36  23305.58  88.90
793.4  25939.41  23087.07  89.00
794.6  25766.06  22927.65  88.98
795.8  25608.38  22806.67  89.06
797.1  25427.85  22685.90  89.22
798.3  25301.10  22610.06  89.36
799.5  25235.55  22567.88  89.43
800.8  25155.70  22511.61  89.49
802.0  25074.70  22456.57  89.56
803.2  24986.56  22370.99  89.53
804.5  24925.76  22326.68  89.57
805.7  24855.66  22262.76  89.57
806.9  24776.64  22210.51  89.64
808.1  24708.89  22159.55  89.68
809.4  24677.19  22139.98  89.72
810.6  24617.78  22116.03  89.84
811.8  24606.91  22120.54  89.90
813.0  24601.75  22135.66  89.98
814.2  24620.30  22163.39  90.02
815.4  24684.78  22209.48  89.97
816.6  24715.54  22203.72  89.84
817.9  24752.29  22197.74  89.68
819.1  24717.85  22127.91  89.52
820.3  24615.89  22021.43  89.46
821.5  24558.22  21943.05  89.35
822.7  24525.20  21892.58  89.27
823.9  24512.51  21885.33  89.28
825.1  24512.73  21850.64  89.14
826.3  24527.23  21820.35  88.96
827.5  24554.23  21825.57  88.89
828.7  24585.24  21813.22  88.72
829.9  24620.63  21793.14  88.52
831.0  24677.45  21832.38  88.47
832.2  24735.00  21861.96  88.38
833.4  24800.15  21874.82  88.20
834.6  24827.34  21910.63  88.25
835.8  24886.58  21937.23  88.15
837.0  24941.18  22004.87  88.23
838.1  25036.55  22083.42  88.20
839.3  25073.20  22126.03  88.25
840.5  25138.07  22183.69  88.25
841.7  25214.76  22275.70  88.34
842.9  25311.78  22387.31  88.45
844.0  25352.29  22455.18  88.57
845.2  25454.19  22537.85  88.54
846.4  25527.43  22598.17  88.53
847.5  25656.16  22730.25  88.60
848.7  25745.00  22824.28  88.66
849.9  25879.71  22897.78  88.48
851.0  25913.04  22899.50  88.37
852.2  25966.07  22912.10  88.24
853.3  25941.98  22878.63  88.19
854.5  25934.86  22873.05  88.19
855.6  25916.94  22861.74  88.21
856.8  25944.85  22891.11  88.23
857.9  25943.54  22896.30  88.25
859.1  25996.60  22958.19  88.31
860.2  26027.46  22968.89  88.25
861.4  26023.97  22997.71  88.37
862.5  26059.24  23001.61  88.27
863.7  26115.12  23046.51  88.25
864.8  26101.25  23050.67  88.31
865.9  26082.46  23034.17  88.31
867.1  26099.25  23044.12  88.29
868.2  26099.69  23049.86  88.31
869.3  26128.19  23060.44  88.26
870.5  26099.47  23018.65  88.20
871.6  26087.08  23035.31  88.30
872.7  26136.21  23083.85  88.32
873.9  26148.82  23088.53  88.30
875.0  26142.73  23080.17  88.29
876.1  26142.29  23068.47  88.24
877.2  26184.05  23068.28  88.10
878.3  26169.01  23039.03  88.04
879.4  26191.11  23051.53  88.01
880.5  26214.48  23051.52  87.93
881.7  26220.35  23021.18  87.80
882.8  26271.44  23021.58  87.63
883.9  26272.50  23033.39  87.67
885.0  26275.91  22945.47  87.33
886.1  26278.81  22913.95  87.20
887.2  26194.66  22768.49  86.92
888.3  26154.69  22695.87  86.78
889.4  26083.75  22611.32  86.69
890.5  26060.47  22530.51  86.45
891.6  26043.45  22478.05  86.31
892.7  26025.13  22452.27  86.27
893.8  26046.70  22476.29  86.29
894.9  26070.72  22468.32  86.18
896.0  26059.51  22422.47  86.04
897.0  26054.12  22406.66  86.00
898.1  26079.30  22387.83  85.85
899.2  26095.96  22374.90  85.74
900.3  26052.56  22309.39  85.63
901.4  26029.33  22247.64  85.47
902.4  26018.83  22248.19  85.51
903.5  26017.27  22171.49  85.22
904.6  26012.16  22162.93  85.20
905.7  26050.43  22159.33  85.06
906.7  26024.14  22136.09  85.06
907.8  26076.86  22114.09  84.80
908.9  26057.48  22043.18  84.59
909.9  26017.06  21996.87  84.55
911.0  26009.49  21942.65  84.36
912.1  25979.15  21871.73  84.19
913.1  25944.88  21807.14  84.05
914.2  25856.17  21696.22  83.91
915.2  25844.13  21663.65  83.82
916.3  25883.78  21610.18  83.49
917.3  25847.25  21589.72  83.53
918.4  25819.06  21484.17  83.21
919.4  25792.96  21398.14  82.96
920.5  25804.34  21350.05  82.74
921.5  25824.68  21277.20  82.39
922.6  25820.42  21195.60  82.09
923.6  25802.74  21136.01  81.91
924.7  25837.63  21074.30  81.56
925.7  25830.51  21010.48  81.34
926.7  25889.20  20921.99  80.81
927.8  25949.67  20858.74  80.38
928.8  26061.51  20843.24  79.98
929.9  26114.55  20811.75  79.69
930.9  26214.58  20817.91  79.41
931.9  26363.30  20846.15  79.07
932.9  26568.63  20896.62  78.65
934.0  26604.58  20844.65  78.35
935.0  26610.78  20752.91  77.99
936.0  26639.41  20654.52  77.53
937.0  26632.91  20562.49  77.21
938.1  26589.57  20457.80  76.94
939.1  26594.73  20372.07  76.60
940.1  26647.30  20296.46  76.17
941.1  26757.94  20322.09  75.95
942.1  26950.86  20305.94  75.34
943.1  27064.46  20278.47  74.93
944.1  27200.04  20282.28  74.57
945.2  27250.86  20207.04  74.15
946.2  27341.46  20137.03  73.65
947.2  27385.31  20028.62  73.14
948.2  27528.14  19961.13  72.51
949.2  27562.84  19915.79  72.26
950.2  27601.23  19799.26  71.73
951.2  27696.06  19723.54  71.21
952.2  27776.58  19617.94  70.63
953.2  27874.44  19537.25  70.09
954.2  27994.28  19497.00  69.65
955.2  28013.52  19389.52  69.21
956.2  27975.49  19268.18  68.88
957.2  28074.45  19209.09  68.42
958.2  28163.05  19166.75  68.06
959.2  28188.45  19136.40  67.89
960.1  28244.69  19105.52  67.64
961.1  28322.00  19136.64  67.57
962.1  28304.06  19118.75  67.55
963.1  28357.97  19069.49  67.25
964.1  28464.51  19093.39  67.08
965.1  28543.56  19116.00  66.97
966.1  28584.14  19158.39  67.02
967.0  28655.80  19183.43  66.94
968.0  28697.14  19188.25  66.86
969.0  28718.80  19180.11  66.79
970.0  28760.47  19208.96  66.79
971.0  28834.42  19248.77  66.76
971.9  28848.78  19275.03  66.81
972.9  28890.31  19260.21  66.67
973.9  28948.56  19222.02  66.40
974.9  29046.70  19236.99  66.23
975.8  29063.68  19220.63  66.13
976.8  29052.58  19254.40  66.27
977.8  29165.54  19263.17  66.05
978.8  29197.88  19299.54  66.10
979.7  29189.32  19391.09  66.43
981.4  29653.05  18550.69  62.56
985.3  29580.67  18623.41  62.96
989.3  29694.74  18936.34  63.77
993.3  29811.28  19321.82  64.81
997.2  29873.76  19591.23  65.58
1001.2  29847.48  19778.89  66.27
1005.2  29766.32  19949.87  67.02
1009.1  29802.16  20153.79  67.63
1013.1  29912.80  20432.60  68.31
1017.1  29980.27  20732.59  69.15
1021.0  29997.45  20960.84  69.88
1025.0  29986.05  21178.48  70.63
1029.0  29874.56  21300.81  71.30
1032.9  29757.39  21403.50  71.93
1036.9  29719.10  21578.67  72.61
1040.9  29786.91  21818.86  73.25
1044.8  29914.06  22103.44  73.89
1048.8  30017.23  22370.89  74.53
1052.7  30081.05  22600.58  75.13
1056.7  30106.96  22752.11  75.57
1060.7  30124.55  22861.24  75.89
1064.6  30126.20  22949.77  76.18
1068.6  30068.46  22947.66  76.32
1072.5  30024.99  22913.93  76.32
1076.5  29992.38  22873.33  76.26
1080.4  29983.51  22832.63  76.15
1084.4  30049.89  22799.95  75.87
1088.3  30134.74  22740.24  75.46
1092.3  30115.74  22599.70  75.04
1096.2  30104.84  22445.82  74.56
1100.2  30142.18  22320.50  74.05
1104.1  30082.71  22123.98  73.54
1108.1  30052.27  21944.02  73.02
1112.0  29977.43  21705.77  72.41
1116.0  29868.35  21387.21  71.60
1119.9  29779.89  21042.38  70.66
1123.9  29822.35  20748.39  69.57
1127.8  29798.40  20311.04  68.16
1131.8  29786.58  19737.07  66.26
1135.7  29821.64  19060.94  63.92
1139.6  29831.38  18297.89  61.34
1143.6  29819.95  17571.44  58.93
1147.5  29803.64  16973.91  56.95
1151.4  29713.98  16464.47  55.41
1155.4  29731.43  16143.84  54.30
1159.3  29760.66  15964.47  53.64
1163.2  29674.15  15796.33  53.23
1167.2  29672.28  15715.24  52.96
1171.1  29681.80  15669.48  52.79
1175.0  29651.52  15606.80  52.63
1179.0  29638.87  15559.34  52.50
1182.9  29697.98  15541.33  52.33
1186.8  29706.14  15494.31  52.16
1190.7  29571.10  15381.38  52.01
1194.7  29411.94  15270.99  51.92
1198.6  29289.65  15204.42  51.91
1202.5  29196.66  15176.88  51.98
1206.4  29112.98  15159.29  52.07
1210.3  29056.59  15162.93  52.18
1214.2  29008.58  15180.70  52.33
1218.2  28915.95  15184.72  52.51
1222.1  28833.10  15218.93  52.78
1226.0  28785.60  15270.81  53.05
1229.9  28734.48  15308.52  53.28
1233.8  28673.70  15325.20  53.45
1237.7  28644.25  15361.08  53.63
1241.6  28596.57  15411.68  53.89
1245.5  28494.07  15420.19  54.12
1249.4  28422.55  15411.27  54.22
1253.3  28356.92  15392.29  54.28
1257.2  28323.43  15399.74  54.37
1261.1  28264.79  15412.03  54.53
1265.0  28184.91  15399.49  54.64
1268.9  28067.43  15331.93  54.63
1272.8  28106.70  15323.50  54.52
1276.7  28238.01  15349.43  54.36
1280.6  28297.17  15316.90  54.13
1284.5  28250.81  15208.52  53.83
1288.4  28234.52  15096.99  53.47
1292.3  28165.50  14929.75  53.01
1296.2  28076.33  14743.35  52.51
1300.1  27971.71  14535.29  51.96
1303.9  27830.79  14270.44  51.28
1307.8  27679.51  13983.91  50.52
1311.7  27513.83  13683.94  49.73
1315.6  27356.90  13365.58  48.86
1319.5  27190.78  13016.83  47.87
1323.3  27036.43  12666.37  46.85
1327.2  26898.46  12324.30  45.82
1331.1  26745.75  11969.81  44.75
1335.0  26551.82  11583.32  43.63
1338.8  26417.20  11241.59  42.55
1342.7  26306.22  10957.67  41.65
1346.5  26068.84  10656.95  40.88
1350.4  25867.11  10386.99  40.16
1354.3  25587.95  10083.90  39.41
1358.1  25293.52  9750.61  38.55
1362.0  25095.25  9453.93  37.67
1365.8  25024.00  9203.56  36.78
1369.7  25106.98  8997.65  35.84
1373.5  25078.13  8727.33  34.80
1377.4  24917.97  8325.59  33.41
1381.2  24782.40  7806.70  31.50
1385.1  24754.66  7280.02  29.41
1389.0  24692.16  6788.84  27.49
1392.8  24567.88  6313.32  25.70
1396.6  24460.52  5867.88  23.99
1400.5  24320.99  5471.71  22.50
1404.3  24225.89  5159.94  21.30
1408.2  24204.64  4926.78  20.35
1412.0  24174.50  4742.61  19.62
1415.8  24201.79  4618.05  19.08
1419.6  24176.54  4511.50  18.66
1423.5  24162.30  4428.19  18.33
1427.3  24156.22  4372.06  18.10
1431.1  24149.78  4332.25  17.94
1434.9  24082.82  4286.28  17.80
1438.8  24045.91  4260.37  17.72
1442.6  24021.66  4246.72  17.68
1446.4  23948.95  4215.85  17.60
1450.2  23899.20  4202.28  17.58
1454.0  23823.72  4189.12  17.58
1457.8  23805.13  4189.90  17.60
1461.6  23794.65  4208.66  17.69
1465.4  23719.51  4221.56  17.80
1469.2  23598.58  4231.50  17.93
1473.0  23505.47  4255.71  18.11
1476.8  23479.35  4306.18  18.34
1480.7  23444.07  4361.25  18.60
1484.4  23358.60  4415.60  18.90
1488.2  23294.76  4490.08  19.28
1492.0  23212.99  4559.37  19.64
1495.8  23134.48  4628.11  20.01
1499.6  23068.04  4698.54  20.37
1503.4  22989.82  4763.61  20.72
1507.2  22924.40  4823.99  21.04
1510.9  22832.54  4871.88  21.34
1514.7  22729.47  4916.72  21.63
1518.5  22650.58  4968.80  21.94
1522.3  22564.73  5019.91  22.25
1526.0  22502.83  5075.50  22.55
1529.8  22457.39  5129.81  22.84
1533.6  22379.96  5175.94  23.13
1537.3  22300.49  5238.98  23.49
1541.1  22218.14  5312.24  23.91
1544.8  22130.40  5379.20  24.31
1548.6  22049.49  5432.24  24.64
1552.4  21992.28  5468.06  24.86
1556.1  21940.64  5485.16  25.00
1559.9  21881.16  5515.78  25.21
1563.6  21806.79  5568.76  25.54
1567.3  21732.27  5632.43  25.92
1571.1  21585.13  5673.89  26.29
1574.8  21494.94  5717.66  26.60
1578.6  21441.85  5768.61  26.90
1582.3  21360.05  5798.90  27.15
1586.0  21278.88  5818.28  27.34
1589.8  21182.42  5832.95  27.54
1593.5  21087.16  5841.66  27.70
1597.2  21011.15  5861.64  27.90
1600.9  20910.91  5886.55  28.15
1604.7  20817.19  5912.98  28.40
1608.4  20751.75  5938.01  28.61
1612.1  20653.79  5953.03  28.82
1615.8  20554.46  5970.89  29.05
1619.5  20509.10  5994.47  29.23
1623.2  20415.20  6005.23  29.42
1626.9  20293.94  6010.60  29.62
1630.6  20187.64  6022.57  29.83
1634.3  20108.09  6028.88  29.98
1638.0  20016.12  6014.64  30.05
1641.7  19907.78  5990.59  30.09
1645.4  19793.59  5968.24  30.15
1649.1  19676.58  5942.18  30.20
1652.8  19573.89  5916.84  30.23
1656.4  19468.81  5885.19  30.23
1660.1  19373.12  5856.18  30.23
1663.8  19253.37  5816.73  30.21
1667.5  19154.03  5780.96  30.18
1671.1  19073.44  5750.45  30.15
1674.8  18955.63  5708.85  30.12
1678.5  18920.35  5692.93  30.09
1682.1  18926.99  5687.07  30.05
1685.8  18934.59  5676.22  29.98
1689.5  18875.64  5643.63  29.90
1693.1  18777.51  5595.57  29.80
1696.8  18693.63  5550.38  29.69
1700.4  18605.80  5501.63  29.57
1704.0  18533.22  5448.97  29.40
1707.7  18380.44  5367.43  29.20
1711.3  18186.09  5273.85  29.00
1715.0  18064.01  5197.24  28.77
1718.6  17962.81  5127.44  28.54
1722.2  17869.77  5060.01  28.32
1725.9  17778.98  4993.30  28.09
1729.5  17683.82  4930.61  27.88
1733.1  17615.86  4881.97  27.71
1736.7  17543.89  4844.38  27.61
1740.3  17426.02  4785.21  27.46
1744.0  17375.79  4739.29  27.28
1747.5  17289.32  4673.61  27.03
1751.2  17148.24  4586.09  26.74
1754.8  17043.21  4515.60  26.50
1758.4  16959.78  4447.75  26.23
1762.0  16844.84  4378.24  25.99
1765.5  16763.61  4328.87  25.82
1769.1  16735.20  4303.20  25.71
1772.7  16687.95  4270.64  25.59
1776.3  16608.65  4227.27  25.45
1779.9  16528.93  4190.47  25.35
1783.5  16504.40  4168.05  25.25
1787.0  16420.93  4133.35  25.17
1790.6  16313.97  4097.12  25.11
1794.2  16250.54  4077.21  25.09
1797.8  16183.76  4055.99  25.06
1801.3  16118.56  4042.84  25.08
1804.9  16020.38  4019.75  25.09
1808.4  15971.30  4004.39  25.07
1812.0  15882.75  3984.72  25.09
1815.5  15784.84  3964.28  25.11
1819.1  15650.89  3930.49  25.11
1822.6  15532.45  3896.10  25.08
1826.2  15446.30  3869.65  25.05
1829.7  15337.22  3842.56  25.05
1833.2  15178.78  3800.10  25.04
1836.8  15030.02  3748.75  24.94
1840.3  14950.04  3715.34  24.85
1843.8  14886.20  3696.40  24.83
1847.3  14837.06  3705.90  24.98
1850.8  14793.41  3713.47  25.10
1854.3  14722.56  3695.79  25.10
1857.8  14658.80  3652.13  24.91
1861.3  14629.20  3539.45  24.19
1864.8  14572.84  3351.46  23.00
1868.3  14425.58  3094.70  21.45
1871.8  14284.80  2818.56  19.73
1875.3  14255.61  2598.96  18.23
1878.8  14246.03  2446.52  17.17
1882.3  14193.40  2310.73  16.28
1885.8  14118.50  2176.40  15.42
1889.3  13979.52  2060.23  14.74
1892.7  13865.36  1992.15  14.37
1896.2  13804.86  1967.99  14.26
1899.7  13707.11  1965.96  14.34
1901.7  12697.20  2026.07  15.96
1904.5  12812.38  2001.38  15.62
1907.2  12777.50  1955.42  15.30
1910.0  12693.31  1905.15  15.01
1912.7  12674.55  1838.87  14.51
1915.5  12622.22  1790.09  14.18
1918.2  12592.16  1787.97  14.20
1921.0  12470.84  1762.72  14.13
1923.7  12502.92  1739.76  13.91
1926.5  12525.14  1732.55  13.83
1929.2  12499.59  1714.50  13.72
1932.0  12466.20  1711.67  13.73
1934.7  12450.39  1711.33  13.75
1937.4  12388.06  1690.41  13.65
1940.2  12333.29  1699.56  13.78
1942.9  12377.93  1721.44  13.91
1945.6  12406.16  1731.47  13.96
1948.3  12364.25  1714.75  13.87
1951.1  12353.04  1707.67  13.82
1953.8  12345.00  1739.00  14.09
1956.5  12249.55  1739.10  14.20
1959.2  12291.89  1739.18  14.15
1961.9  12307.40  1759.19  14.29
1964.6  12224.28  1763.19  14.42
1967.3  12284.97  1772.09  14.42
1970.0  12156.72  1770.08  14.56
1972.8  12093.19  1766.96  14.61
1975.5  12180.79  1785.27  14.66
1978.2  12109.24  1789.96  14.78
1980.9  12027.29  1793.70  14.91
1983.5  11996.88  1806.08  15.05
1986.2  11983.38  1807.11  15.08
1988.9  11983.38  1814.87  15.14
1991.6  11899.51  1822.00  15.31
1994.3  11798.84  1827.36  15.49
1997.0  11807.25  1840.53  15.59
1999.7  11770.96  1842.65  15.65
2002.3  11768.44  1855.45  15.77
2005.0  11742.55  1866.00  15.89
2007.7  11687.40  1877.67  16.07
2010.4  11651.26  1872.88  16.07
2013.0  11630.36  1872.96  16.10
2015.7  11528.64  1878.34  16.29
2018.4  11457.30  1875.04  16.37
2021.0  11452.33  1887.00  16.48
2023.7  11380.16  1886.33  16.58
2026.4  11323.00  1891.86  16.71
2029.0  11263.54  1890.38  16.78
2031.7  11193.43  1889.05  16.88
2034.3  11193.43  1895.61  16.94
2037.0  11130.51  1893.56  17.01
2039.6  11076.09  1903.69  17.19
2042.3  11047.98  1905.92  17.25
2044.9  11026.46  1909.27  17.32
2047.5  11001.21  1919.56  17.45
2050.2  10900.40  1913.33  17.55
2052.8  10894.80  1924.53  17.66
2055.4  10822.84  1919.14  17.73
2058.1  10738.00  1899.33  17.69
2060.7  10718.83  1907.12  17.79
2063.3  10653.43  1912.58  17.95
2065.9  10619.50  1917.88  18.06
2068.6  10577.63  1924.39  18.19
2071.2  10537.83  1924.17  18.26
2073.8  10490.95  1912.19  18.23
2076.4  10463.25  1916.02  18.31
2079.0  10439.15  1933.28  18.52
2081.6  10423.40  1947.76  18.69
2084.2  10414.77  1946.95  18.69
2086.8  10346.04  1937.41  18.73
2089.4  10282.92  1934.61  18.81
2092.1  10234.00  1933.28  18.89
2094.7  10195.43  1933.24  18.96
2097.2  10197.17  1934.22  18.97
2099.8  10202.45  1953.76  19.15
2102.4  10082.46  1943.89  19.28
2105.0  9986.40  1921.85  19.24
2107.6  9963.47  1934.97  19.42
2110.2  9945.83  1940.86  19.51
2112.8  9950.08  1942.30  19.52
2115.3  9950.34  1964.86  19.75
2117.9  9955.62  1969.27  19.78
2120.5  9928.49  1960.82  19.75
2123.1  9866.03  1971.45  19.98
2125.6  9842.13  1972.72  20.04
2128.2  9772.14  1963.79  20.10
2130.8  9719.78  1970.48  20.27
2133.3  9694.67  1970.22  20.32
2135.9  9628.08  1955.23  20.31
2138.4  9561.93  1941.85  20.31
2141.0  9493.76  1949.10  20.53
2143.6  9481.01  1949.56  20.56
2146.1  9385.04  1924.61  20.51
2148.7  9294.55  1912.75  20.58
2151.2  9319.20  1920.36  20.61
2153.8  9286.22  1921.01  20.69
2156.3  9196.68  1896.04  20.62
2158.8  9176.01  1893.09  20.63
2161.4  9166.37  1899.71  20.72
2163.9  9107.40  1892.83  20.78
2166.4  9056.27  1888.33  20.85
2169.0  9041.49  1886.35  20.86
2171.5  8982.35  1855.80  20.66
2174.0  8919.05  1840.53  20.64
2176.5  8910.20  1859.78  20.87
2179.1  8872.37  1848.16  20.83
2181.6  8820.83  1832.10  20.77
2184.1  8802.64  1824.39  20.73
2186.6  8815.58  1832.79  20.79
2189.1  8766.51  1813.65  20.69
2191.6  8725.27  1806.47  20.70
2194.1  8759.24  1806.99  20.63
2196.6  8743.02  1788.91  20.46
2199.2  8762.69  1796.49  20.50
2201.7  8728.52  1800.39  20.63
2204.1  8693.38  1793.41  20.63
2206.6  8724.47  1801.59  20.65
2209.1  8690.36  1799.14  20.70
2211.6  8648.75  1785.33  20.64
2214.1  8641.19  1782.98  20.63
2216.6  8629.81  1771.29  20.53
2219.1  8603.23  1778.89  20.68
2221.6  8565.00  1768.83  20.65
2224.0  8580.12  1747.52  20.37
2226.5  8553.64  1745.23  20.40
2229.0  8526.93  1744.72  20.46
2231.5  8456.64  1715.84  20.29
2233.9  8447.09  1688.14  19.98
2236.4  8434.10  1675.24  19.86
2238.9  8377.75  1672.71  19.97
2241.3  8418.52  1679.04  19.94
2243.8  8391.31  1664.79  19.84
2246.2  8272.81  1633.37  19.74
2248.7  8260.98  1617.23  19.58
2251.2  8270.85  1615.48  19.53
2253.6  8217.60  1605.12  19.53
2256.1  8198.40  1585.92  19.34
2258.5  8205.80  1572.52  19.16
2260.9  8176.22  1548.06  18.93
2263.4  8125.75  1546.85  19.04
2265.8  8124.16  1533.54  18.88
2268.3  8073.80  1505.98  18.65
2270.7  8110.40  1513.58  18.66
2273.1  8107.19  1479.04  18.24
2275.6  8037.12  1470.72  18.30
2278.0  8047.94  1470.72  18.27
2280.4  8050.71  1458.52  18.12
2282.8  7936.92  1427.35  17.98
2285.3  7936.09  1416.65  17.85
2287.7  8013.06  1446.15  18.05
2290.1  7946.20  1431.11  18.01
2292.5  7908.89  1396.85  17.66
2294.9  7966.56  1383.08  17.36
2297.3  7878.36  1361.84  17.29
2299.7  7782.17  1325.33  17.03
2302.1  7817.38  1322.54  16.92
2304.5  7722.40  1304.05  16.89
2306.9  7647.92  1275.31  16.68
2309.3  7632.91  1263.01  16.55
2311.7  7536.00  1254.70  16.65
2314.1  7439.51  1235.33  16.60
2316.5  7426.90  1233.22  16.60
2318.9  7433.98  1253.45  16.86
2321.3  7420.20  1245.28  16.78
2323.7  7439.58  1232.61  16.57
2326.1  7403.11  1229.15  16.60
2328.4  7412.50  1235.42  16.67
2330.8  7505.15  1237.91  16.49
2333.2  7417.12  1223.15  16.49
2335.6  7356.75  1210.90  16.46
2337.9  7411.84  1192.18  16.08
2340.3  7376.47  1192.33  16.16
2342.7  7282.70  1184.87  16.27
2345.0  7270.29  1150.85  15.83
2347.4  7284.50  1154.58  15.85
2349.7  7133.68  1119.18  15.69
2352.1  7080.04  1110.68  15.69
2354.4  7143.83  1119.00  15.66
2356.8  7126.82  1112.26  15.61
2359.2  7067.67  1105.00  15.63
2361.5  7038.06  1087.92  15.46
2363.8  7031.06  1083.28  15.41
2366.2  7039.27  1081.27  15.36
2368.5  7035.45  1070.97  15.22
2370.9  7023.13  1057.20  15.05
2373.2  6987.82  1065.71  15.25
2375.5  6900.63  1025.67  14.86
2377.9  6892.20  1004.35  14.57
2380.2  6890.83  1026.29  14.89
2382.5  6864.93  1009.37  14.70
2384.8  6830.08  992.96  14.54
2387.2  6784.02  979.86  14.44
2389.5  6780.31  988.40  14.58
2391.8  6787.76  1001.37  14.75
2394.1  6727.26  966.06  14.36
2396.4  6676.90  953.15  14.28
2398.7  6732.64  958.10  14.23
2401.0  6690.59  932.96  13.94
2403.3  6603.48  919.64  13.93
2405.6  6572.81  944.69  14.37
2407.9  6583.14  945.22  14.36
2410.2  6542.40  914.10  13.97
2412.5  6479.13  907.93  14.01
2414.8  6475.24  910.61  14.06
2417.1  6452.08  898.13  13.92
2419.4  6434.35  878.75  13.66
2421.7  6386.85  863.84  13.53
2424.0  6345.28  880.55  13.88
2426.2  6355.80  850.65  13.38
2428.5  6327.75  831.08  13.13
2430.8  6349.25  868.37  13.68
2433.1  6300.57  846.34  13.43
2435.4  6204.86  828.06  13.35
2437.6  6227.24  818.74  13.15
2439.9  6165.27  814.18  13.21
2442.2  6149.09  832.39  13.54
2444.4  6162.60  819.38  13.30
2446.7  6079.44  794.24  13.06
2448.9  6081.55  797.45  13.11
2451.2  6103.04  802.61  13.15
2453.4  6038.72  775.43  12.84
2455.7  6026.93  788.59  13.08
2457.9  5958.48  773.30  12.98
2460.2  5949.23  741.86  12.47
2462.4  5977.92  757.12  12.67
2464.7  5891.98  733.87  12.46
2466.9  5829.36  695.50  11.93
2469.2  5872.39  732.43  12.47
2471.4  5796.90  739.66  12.76
2473.6  5737.62  711.90  12.41
2475.9  5730.24  717.97  12.53
2478.1  5663.45  705.94  12.46
2480.3  5645.91  689.21  12.21
2482.5  5682.93  688.62  12.12
2484.8  5614.17  650.49  11.59
2487.0  5547.59  636.97  11.48
2489.2  5555.75  680.96  12.26
2491.4  5471.72  668.60  12.22
2493.6  5479.00  645.36  11.78
2495.8  5550.75  667.78  12.03
2498.0  5512.53  672.85  12.21
2500.2  5509.95  671.19  12.18
2502.4  5736.48  668.96  11.66
2504.6  5803.02  635.39  10.95
2506.8  5806.03  626.71  10.79
