/*** Spectra Vista SIG Data ***/
name= RS3.sig
comm= SIG file reprocesed for matching/overlap;Averaged Ref/Tar of files: RD5S7,RD5S8,RD5S9
data=
346.4  366.28  116.78  31.88
347.9  400.03  115.04  28.76
349.5  432.12  123.97  28.69
351.1  468.00  125.63  26.84
352.6  496.51  131.56  26.50
354.2  520.33  137.45  26.42
355.7  575.84  141.88  24.64
357.3  598.14  145.64  24.35
358.8  616.87  150.98  24.48
360.4  668.33  156.18  23.37
361.9  686.05  159.73  23.28
363.5  715.01  161.12  22.53
365.1  743.78  167.83  22.56
366.6  778.54  168.94  21.70
368.2  824.27  171.46  20.80
369.7  873.39  176.31  20.19
371.3  928.49  183.50  19.76
372.8  977.74  190.35  19.47
374.4  1016.27  191.35  18.83
375.9  1052.58  197.71  18.78
377.4  1084.71  199.05  18.35
379.0  1129.79  203.68  18.03
380.5  1157.14  205.17  17.73
382.1  1186.43  204.88  17.27
383.6  1234.64  210.54  17.05
385.2  1293.88  207.53  16.04
386.7  1345.63  213.71  15.88
388.3  1410.38  225.01  15.95
389.8  1464.46  230.58  15.75
391.3  1527.57  236.54  15.48
392.9  1567.60  242.39  15.46
394.4  1609.87  250.46  15.56
395.9  1662.63  263.34  15.84
397.5  1749.05  268.74  15.36
399.0  1827.74  270.69  14.81
400.6  1876.29  272.81  14.54
402.1  1904.04  271.42  14.25
403.6  1943.17  271.72  13.98
405.1  1994.81  275.72  13.82
406.7  2061.92  277.46  13.46
408.2  2135.06  288.98  13.53
409.7  2198.56  294.19  13.38
411.3  2272.05  303.86  13.37
412.8  2335.64  311.26  13.33
414.3  2399.77  317.20  13.22
415.8  2475.00  327.33  13.23
417.4  2547.71  337.00  13.23
418.9  2612.23  343.74  13.16
420.4  2658.25  349.95  13.16
421.9  2705.56  351.06  12.98
423.5  2743.63  352.12  12.83
425.0  2788.02  349.71  12.54
426.5  2844.45  361.20  12.70
428.0  2917.63  365.62  12.53
429.5  3009.90  372.09  12.36
431.1  3112.45  381.06  12.24
432.6  3227.88  392.70  12.17
434.1  3329.29  403.48  12.12
435.6  3423.98  413.57  12.08
437.1  3517.80  425.10  12.08
438.6  3607.74  433.61  12.02
440.1  3694.39  444.34  12.03
441.6  3790.73  452.30  11.93
443.1  3873.83  461.97  11.93
444.7  3959.99  466.35  11.78
446.2  4024.76  474.89  11.80
447.7  4101.41  481.26  11.73
449.2  4174.20  487.87  11.69
450.7  4238.00  486.44  11.48
452.2  4313.18  497.27  11.53
453.7  4393.64  500.64  11.39
455.2  4491.99  509.06  11.33
456.7  4618.24  521.19  11.29
458.2  4761.06  534.97  11.24
459.7  4899.13  551.37  11.25
461.2  5044.37  569.98  11.30
462.7  5165.05  581.39  11.26
464.2  5287.79  598.53  11.32
465.7  5408.14  608.31  11.25
467.2  5518.98  623.70  11.30
468.7  5631.00  640.00  11.37
470.2  5705.20  656.37  11.50
471.7  5821.13  667.22  11.46
473.2  6011.22  672.27  11.18
474.6  6153.75  687.76  11.18
476.1  6204.18  694.79  11.20
477.6  6220.94  697.39  11.21
479.1  6250.52  693.96  11.10
480.6  6293.37  695.28  11.05
482.1  6374.96  699.60  10.97
483.6  6474.12  706.01  10.91
485.1  6599.29  715.51  10.84
486.6  6739.10  728.63  10.81
488.0  6898.13  744.25  10.79
489.5  7058.36  762.06  10.80
491.0  7224.81  778.73  10.78
492.5  7392.87  796.39  10.77
494.0  7557.79  810.74  10.73
495.4  7702.20  828.52  10.76
496.9  7844.83  845.91  10.78
498.4  7990.29  859.11  10.75
499.9  8131.50  872.03  10.72
501.4  8263.45  891.34  10.79
502.8  8392.79  901.61  10.74
504.3  8499.60  915.12  10.77
505.8  8611.18  927.40  10.77
507.2  8674.01  937.30  10.81
508.7  8728.20  940.46  10.77
510.2  8764.92  946.27  10.80
511.6  8789.76  950.79  10.82
513.1  8840.43  957.94  10.84
514.6  8904.34  968.15  10.87
516.0  8958.85  971.11  10.84
517.5  9056.55  981.72  10.84
519.0  9171.31  993.35  10.83
520.5  9287.32  1008.49  10.86
521.9  9437.16  1025.55  10.87
523.4  9612.27  1048.23  10.91
524.8  9785.79  1066.60  10.90
526.3  9984.58  1093.90  10.96
527.8  10184.06  1122.30  11.02
529.2  10366.76  1144.45  11.04
530.7  10567.61  1171.80  11.09
532.1  10746.40  1197.22  11.14
533.6  10959.02  1224.24  11.17
535.0  11168.56  1252.94  11.22
536.5  11376.00  1285.01  11.30
538.0  11592.92  1309.34  11.29
539.4  11785.91  1333.81  11.32
540.9  12037.93  1362.83  11.32
542.3  12246.63  1377.83  11.25
543.8  12400.56  1399.34  11.28
545.2  12445.48  1407.37  11.31
546.6  12442.01  1410.67  11.34
548.1  12455.19  1411.24  11.33
549.5  12460.55  1417.11  11.37
551.0  12456.77  1417.89  11.38
552.4  12484.13  1422.77  11.40
553.9  12491.52  1423.88  11.40
555.3  12509.64  1430.44  11.43
556.8  12569.08  1441.85  11.47
558.2  12630.94  1452.83  11.50
559.6  12713.51  1468.08  11.55
561.1  12831.00  1488.07  11.60
562.5  12959.42  1508.92  11.64
564.0  13129.35  1539.14  11.72
565.4  13288.41  1570.40  11.82
566.8  13487.87  1606.84  11.91
568.3  13678.39  1643.58  12.02
569.7  13879.32  1685.68  12.15
571.1  14074.77  1722.32  12.24
572.6  14269.77  1769.47  12.40
574.0  14463.08  1811.92  12.53
575.4  14650.03  1857.38  12.68
576.9  14818.07  1906.21  12.86
578.3  14977.46  1951.95  13.03
579.7  15131.24  1998.20  13.21
581.1  15254.19  2050.51  13.44
582.6  15387.18  2100.16  13.65
584.0  15508.86  2150.53  13.87
585.4  15681.05  2208.63  14.08
586.8  15909.04  2272.69  14.29
588.3  16162.38  2336.88  14.46
589.7  16371.81  2400.21  14.66
591.1  16519.39  2458.57  14.88
592.5  16589.78  2518.32  15.18
594.0  16627.80  2571.06  15.46
595.4  16637.76  2623.85  15.77
596.8  16651.64  2678.10  16.08
598.2  16659.51  2737.65  16.43
599.6  16659.36  2793.39  16.77
601.0  16705.59  2860.40  17.12
602.4  16752.94  2926.16  17.47
603.9  16822.23  3006.64  17.87
605.3  16905.11  3089.39  18.27
606.7  16973.10  3178.08  18.72
608.1  17114.04  3287.45  19.21
609.5  17255.15  3397.37  19.69
610.9  17434.91  3518.89  20.18
612.3  17598.49  3641.82  20.69
613.7  17818.60  3783.37  21.23
615.1  17967.42  3908.95  21.76
616.5  18122.06  4036.68  22.27
617.9  18356.64  4196.84  22.86
619.3  18578.68  4358.32  23.46
620.7  18848.67  4536.86  24.07
622.1  19119.58  4702.22  24.59
623.5  19414.06  4880.39  25.14
624.9  19741.18  5068.07  25.67
626.3  19952.52  5238.69  26.26
627.7  19741.37  5301.31  26.85
629.1  19544.02  5357.24  27.41
630.5  19457.12  5421.08  27.86
631.9  19461.81  5507.60  28.30
633.3  19457.49  5597.24  28.77
634.7  19533.17  5722.47  29.30
636.1  19566.68  5803.65  29.66
637.5  19597.55  5878.82  30.00
638.9  19677.50  5956.48  30.27
640.2  19731.43  6069.03  30.76
641.6  19754.28  6189.46  31.33
643.0  19715.36  6290.92  31.91
644.4  19707.26  6424.99  32.60
645.8  19650.11  6561.74  33.39
647.2  19716.78  6746.39  34.22
648.5  19765.84  6933.16  35.08
649.9  19671.60  7088.20  36.03
651.3  19608.23  7261.04  37.03
652.7  19503.68  7399.42  37.94
654.1  19390.95  7321.29  37.76
655.5  19238.75  7185.79  37.35
656.8  19118.09  7070.75  36.98
658.2  19225.93  7060.13  36.72
659.6  19449.31  7123.77  36.63
660.9  19643.18  7186.97  36.59
662.3  19825.21  7243.67  36.54
663.7  20008.80  7293.72  36.45
665.0  20165.89  7342.06  36.41
666.4  20328.89  7404.54  36.42
667.8  20535.62  7485.68  36.45
669.1  20711.76  7559.68  36.50
670.5  20914.18  7661.28  36.63
671.9  21055.86  7755.54  36.83
673.2  21237.33  7899.43  37.20
674.6  21400.77  8055.60  37.64
676.0  21596.49  8250.76  38.20
677.3  21793.24  8471.90  38.87
678.7  21992.69  8726.10  39.68
680.0  22269.19  9041.04  40.60
681.4  22542.00  9414.03  41.76
682.8  22829.63  9835.28  43.08
684.1  23112.18  10297.56  44.55
685.5  23364.31  10773.45  46.11
686.8  23617.23  11262.86  47.69
688.2  23841.32  11710.37  49.12
689.5  23927.84  12083.81  50.50
690.9  23997.39  12430.45  51.80
692.2  24047.78  12728.24  52.93
693.6  24110.83  13019.72  54.00
694.9  24095.99  13241.79  54.95
696.2  24121.97  13451.90  55.77
697.6  24149.95  13633.42  56.45
698.9  24174.48  13825.50  57.19
700.3  24215.57  13999.70  57.81
701.6  24264.40  14169.03  58.39
703.0  24323.35  14318.30  58.87
704.3  24329.34  14425.78  59.29
705.6  24327.41  14537.02  59.76
707.0  24334.75  14634.09  60.14
708.3  24282.08  14690.44  60.50
709.6  24223.21  14743.54  60.87
711.0  24124.28  14763.27  61.20
712.3  24015.02  14789.29  61.58
713.6  23977.17  14842.29  61.90
714.9  23907.38  14875.70  62.22
716.3  23880.58  14927.94  62.51
717.6  23876.83  14996.62  62.81
718.9  23805.06  15008.24  63.05
720.2  23675.16  14966.52  63.22
721.6  23576.15  14949.60  63.41
722.9  23446.45  14931.02  63.68
724.2  23274.82  14894.87  64.00
725.5  23133.68  14887.21  64.35
726.8  23009.81  14861.94  64.59
728.1  22933.91  14861.81  64.80
729.5  22856.87  14873.49  65.07
730.8  22796.53  14900.03  65.36
732.1  22719.29  14924.87  65.69
733.4  22660.56  14961.06  66.02
734.7  22602.67  14974.91  66.25
736.0  22569.89  15030.60  66.60
737.3  22520.76  15063.72  66.89
738.6  22554.56  15168.75  67.25
739.9  22633.16  15313.50  67.66
741.2  22698.59  15425.96  67.96
742.5  22841.25  15607.47  68.33
743.8  23091.34  15874.32  68.75
745.1  23491.07  16234.31  69.11
746.4  23957.57  16638.44  69.45
747.7  24466.55  17026.23  69.59
749.0  24948.63  17379.53  69.66
750.3  25229.30  17550.57  69.56
751.6  25175.69  17524.43  69.61
752.9  24925.64  17392.82  69.78
754.2  24630.59  17261.92  70.08
755.4  24314.44  17141.29  70.50
756.7  24210.69  17174.91  70.94
758.0  24235.24  17289.89  71.34
759.3  24394.18  17516.96  71.81
760.6  24621.52  17781.87  72.22
761.9  24823.09  18039.93  72.67
763.1  24955.30  18203.62  72.94
764.4  25125.21  18392.60  73.20
765.7  25257.38  18565.30  73.50
767.0  25349.99  18715.05  73.83
768.2  25431.84  18846.01  74.10
769.5  25509.93  18984.44  74.42
770.8  25646.87  19146.79  74.66
772.0  25674.66  19247.93  74.97
773.3  25762.96  19377.09  75.21
774.6  25839.71  19507.83  75.50
775.8  25921.43  19615.40  75.67
777.1  25948.26  19703.03  75.93
778.4  25918.05  19745.91  76.19
779.6  25945.86  19832.35  76.44
780.9  25904.00  19893.87  76.80
782.1  25811.51  19912.35  77.15
783.4  25819.04  19987.42  77.41
784.6  25849.06  20088.04  77.71
785.9  26028.56  20359.60  78.22
787.1  26416.14  20740.61  78.51
788.4  26716.91  20989.84  78.56
789.6  26732.54  20917.33  78.25
790.9  26499.75  20692.30  78.08
792.1  26215.36  20525.93  78.30
793.4  25939.41  20405.83  78.67
794.6  25766.06  20310.15  78.83
795.8  25608.38  20259.28  79.11
797.1  25427.85  20189.17  79.40
798.3  25301.10  20167.68  79.71
799.5  25235.55  20182.41  79.98
800.8  25155.70  20187.20  80.25
802.0  25074.70  20183.31  80.49
803.2  24986.56  20164.62  80.70
804.5  24925.76  20171.56  80.93
805.7  24855.66  20151.05  81.07
806.9  24776.64  20153.75  81.34
808.1  24708.89  20155.48  81.57
809.4  24677.19  20187.04  81.80
810.6  24617.78  20202.61  82.07
811.8  24606.91  20259.23  82.33
813.0  24601.75  20323.99  82.61
814.2  24620.30  20403.80  82.87
815.4  24684.78  20512.55  83.10
816.6  24715.54  20573.39  83.24
817.9  24752.29  20625.57  83.33
819.1  24717.85  20612.87  83.39
820.3  24615.89  20585.38  83.63
821.5  24558.22  20577.08  83.79
822.7  24525.20  20580.88  83.92
823.9  24512.51  20621.94  84.13
825.1  24512.73  20651.16  84.25
826.3  24527.23  20704.11  84.41
827.5  24554.23  20763.28  84.56
828.7  24585.24  20825.22  84.71
829.9  24620.63  20891.45  84.85
831.0  24677.45  20970.97  84.98
832.2  24735.00  21055.18  85.12
833.4  24800.15  21133.51  85.22
834.6  24827.34  21208.13  85.42
835.8  24886.58  21289.59  85.55
837.0  24941.18  21392.73  85.77
838.1  25036.55  21513.67  85.93
839.3  25073.20  21603.32  86.16
840.5  25138.07  21693.31  86.30
841.7  25214.76  21840.14  86.62
842.9  25311.78  21982.18  86.85
844.0  25352.29  22089.52  87.13
845.2  25454.19  22216.79  87.28
846.4  25527.43  22338.14  87.51
847.5  25656.16  22503.12  87.71
848.7  25745.00  22626.54  87.89
849.9  25879.71  22744.28  87.88
851.0  25913.04  22779.17  87.91
852.2  25966.07  22861.84  88.05
853.3  25941.98  22873.87  88.17
854.5  25934.86  22895.40  88.28
855.6  25916.94  22922.04  88.44
856.8  25944.85  22981.86  88.58
857.9  25943.54  23009.96  88.69
859.1  25996.60  23101.20  88.86
860.2  26027.46  23133.84  88.88
861.4  26023.97  23209.96  89.19
862.5  26059.24  23259.92  89.26
863.7  26115.12  23336.67  89.36
864.8  26101.25  23384.06  89.59
865.9  26082.46  23382.34  89.65
867.1  26099.25  23424.84  89.75
868.2  26099.69  23472.57  89.93
869.3  26128.19  23499.73  89.94
870.5  26099.47  23501.21  90.04
871.6  26087.08  23530.75  90.20
872.7  26136.21  23584.84  90.24
873.9  26148.82  23630.89  90.37
875.0  26142.73  23639.62  90.43
876.1  26142.29  23653.86  90.48
877.2  26184.05  23699.06  90.51
878.3  26169.01  23711.27  90.61
879.4  26191.11  23750.72  90.68
880.5  26214.48  23783.47  90.73
881.7  26220.35  23786.19  90.72
882.8  26271.44  23818.75  90.66
883.9  26272.50  23802.88  90.60
885.0  26275.91  23788.95  90.54
886.1  26278.81  23771.72  90.46
887.2  26194.66  23664.10  90.34
888.3  26154.69  23602.32  90.24
889.4  26083.75  23520.66  90.17
890.5  26060.47  23505.45  90.20
891.6  26043.45  23470.53  90.12
892.7  26025.13  23469.21  90.18
893.8  26046.70  23496.23  90.21
894.9  26070.72  23503.05  90.15
896.0  26059.51  23477.27  90.09
897.0  26054.12  23499.79  90.20
898.1  26079.30  23525.86  90.21
899.2  26095.96  23510.65  90.09
900.3  26052.56  23482.51  90.14
901.4  26029.33  23435.51  90.04
902.4  26018.83  23452.77  90.14
903.5  26017.27  23392.25  89.91
904.6  26012.16  23395.19  89.94
905.7  26050.43  23392.61  89.80
906.7  26024.14  23393.78  89.89
907.8  26076.86  23404.13  89.75
908.9  26057.48  23364.76  89.67
909.9  26017.06  23329.78  89.67
911.0  26009.49  23272.54  89.48
912.1  25979.15  23234.20  89.43
913.1  25944.88  23178.48  89.34
914.2  25856.17  23107.25  89.37
915.2  25844.13  23090.22  89.34
916.3  25883.78  23057.38  89.08
917.3  25847.25  23000.03  88.98
918.4  25819.06  22919.53  88.77
919.4  25792.96  22877.89  88.70
920.5  25804.34  22834.81  88.49
921.5  25824.68  22804.15  88.30
922.6  25820.42  22712.28  87.96
923.6  25802.74  22688.39  87.93
924.7  25837.63  22645.23  87.64
925.7  25830.51  22584.46  87.43
926.7  25889.20  22513.36  86.96
927.8  25949.67  22453.14  86.53
928.8  26061.51  22444.16  86.12
929.9  26114.55  22439.67  85.93
930.9  26214.58  22451.37  85.64
931.9  26363.30  22476.08  85.26
932.9  26568.63  22532.93  84.81
934.0  26604.58  22444.48  84.36
935.0  26610.78  22371.04  84.07
936.0  26639.41  22293.87  83.69
937.0  26632.91  22188.14  83.31
938.1  26589.57  22085.51  83.06
939.1  26594.73  21990.42  82.69
940.1  26647.30  21942.65  82.34
941.1  26757.94  21959.14  82.07
942.1  26950.86  21960.61  81.48
943.1  27064.46  21971.16  81.18
944.1  27200.04  21965.75  80.76
945.2  27250.86  21870.13  80.25
946.2  27341.46  21802.81  79.74
947.2  27385.31  21710.30  79.28
948.2  27528.14  21694.36  78.81
949.2  27562.84  21578.81  78.29
950.2  27601.23  21464.65  77.77
951.2  27696.06  21380.02  77.20
952.2  27776.58  21299.25  76.68
953.2  27874.44  21219.08  76.12
954.2  27994.28  21139.17  75.51
955.2  28013.52  20997.47  74.95
956.2  27975.49  20898.38  74.70
957.2  28074.45  20826.87  74.18
958.2  28163.05  20810.54  73.89
959.2  28188.45  20745.90  73.60
960.1  28244.69  20705.40  73.31
961.1  28322.00  20724.21  73.17
962.1  28304.06  20669.63  73.03
963.1  28357.97  20635.92  72.77
964.1  28464.51  20672.26  72.62
965.1  28543.56  20701.75  72.53
966.1  28584.14  20716.45  72.48
967.0  28655.80  20710.13  72.27
968.0  28697.14  20745.93  72.29
969.0  28718.80  20766.56  72.31
970.0  28760.47  20801.12  72.33
971.0  28834.42  20822.45  72.21
971.9  28848.78  20915.66  72.50
972.9  28890.31  20886.27  72.30
973.9  28948.56  20940.53  72.34
974.9  29046.70  21025.31  72.38
975.8  29063.68  21044.68  72.41
976.8  29052.58  21082.25  72.57
977.8  29165.54  21153.38  72.53
978.8  29197.88  21238.12  72.74
979.7  29189.32  21351.72  73.15
981.4  29653.05  18652.73  62.90
985.3  29580.67  18955.58  64.08
989.3  29694.74  19432.08  65.44
993.3  29811.28  19855.14  66.60
997.2  29873.76  20128.18  67.38
1001.2  29847.48  20355.36  68.20
1005.2  29766.32  20524.33  68.95
1009.1  29802.16  20762.99  69.67
1013.1  29912.80  21103.61  70.55
1017.1  29980.27  21457.15  71.57
1021.0  29997.45  21738.34  72.47
1025.0  29986.05  22001.50  73.37
1029.0  29874.56  22170.82  74.21
1032.9  29757.39  22327.37  75.03
1036.9  29719.10  22543.66  75.86
1040.9  29786.91  22825.73  76.63
1044.8  29914.06  23160.51  77.42
1048.8  30017.23  23454.80  78.14
1052.7  30081.05  23703.44  78.80
1056.7  30106.96  23872.81  79.29
1060.7  30124.55  24002.82  79.68
1064.6  30126.20  24106.81  80.02
1068.6  30068.46  24120.30  80.22
1072.5  30024.99  24096.12  80.25
1076.5  29992.38  24065.46  80.24
1080.4  29983.51  24019.39  80.11
1084.4  30049.89  23985.06  79.82
1088.3  30134.74  23926.61  79.40
1092.3  30115.74  23767.59  78.92
1096.2  30104.84  23598.42  78.39
1100.2  30142.18  23445.76  77.78
1104.1  30082.71  23197.97  77.11
1108.1  30052.27  22981.46  76.47
1112.0  29977.43  22731.05  75.83
1116.0  29868.35  22396.96  74.99
1119.9  29779.89  22035.04  73.99
1123.9  29822.35  21698.94  72.76
1127.8  29798.40  21178.88  71.07
1131.8  29786.58  20511.77  68.86
1135.7  29821.64  19738.07  66.19
1139.6  29831.38  18871.60  63.26
1143.6  29819.95  18021.09  60.43
1147.5  29803.64  17291.16  58.02
1151.4  29713.98  16654.97  56.05
1155.4  29731.43  16256.41  54.68
1159.3  29760.66  16016.58  53.82
1163.2  29674.15  15791.55  53.22
1167.2  29672.28  15684.56  52.86
1171.1  29681.80  15612.22  52.60
1175.0  29651.52  15526.78  52.36
1179.0  29638.87  15456.36  52.15
1182.9  29697.98  15420.62  51.92
1186.8  29706.14  15359.56  51.71
1190.7  29571.10  15227.05  51.49
1194.7  29411.94  15093.66  51.32
1198.6  29289.65  14995.37  51.20
1202.5  29196.66  14946.61  51.19
1206.4  29112.98  14934.67  51.30
1210.3  29056.59  14942.28  51.42
1214.2  29008.58  14976.37  51.63
1218.2  28915.95  15017.56  51.94
1222.1  28833.10  15067.18  52.26
1226.0  28785.60  15131.02  52.56
1229.9  28734.48  15189.80  52.86
1233.8  28673.70  15241.71  53.16
1237.7  28644.25  15301.42  53.42
1241.6  28596.57  15340.54  53.64
1245.5  28494.07  15348.69  53.87
1249.4  28422.55  15360.36  54.04
1253.3  28356.92  15371.50  54.21
1257.2  28323.43  15385.03  54.32
1261.1  28264.79  15364.40  54.36
1265.0  28184.91  15326.10  54.38
1268.9  28067.43  15252.56  54.34
1272.8  28106.70  15251.30  54.26
1276.7  28238.01  15283.97  54.13
1280.6  28297.17  15255.59  53.91
1284.5  28250.81  15144.92  53.61
1288.4  28234.52  15028.36  53.23
1292.3  28165.50  14850.00  52.72
1296.2  28076.33  14639.32  52.14
1300.1  27971.71  14400.50  51.48
1303.9  27830.79  14105.69  50.68
1307.8  27679.51  13792.28  49.83
1311.7  27513.83  13449.88  48.88
1315.6  27356.90  13095.09  47.87
1319.5  27190.78  12717.37  46.77
1323.3  27036.43  12326.31  45.59
1327.2  26898.46  11947.93  44.42
1331.1  26745.75  11557.14  43.21
1335.0  26551.82  11155.15  42.01
1338.8  26417.20  10798.41  40.88
1342.7  26306.22  10464.18  39.78
1346.5  26068.84  10090.77  38.71
1350.4  25867.11  9753.53  37.71
1354.3  25587.95  9406.69  36.76
1358.1  25293.52  9073.54  35.87
1362.0  25095.25  8793.15  35.04
1365.8  25024.00  8555.62  34.19
1369.7  25106.98  8340.45  33.22
1373.5  25078.13  8019.21  31.98
1377.4  24917.97  7567.02  30.37
1381.2  24782.40  7044.99  28.43
1385.1  24754.66  6539.57  26.42
1389.0  24692.16  6044.53  24.48
1392.8  24567.88  5550.46  22.59
1396.6  24460.52  5116.32  20.92
1400.5  24320.99  4740.88  19.49
1404.3  24225.89  4440.10  18.33
1408.2  24204.64  4221.10  17.44
1412.0  24174.50  4051.63  16.76
1415.8  24201.79  3931.39  16.24
1419.6  24176.54  3833.75  15.86
1423.5  24162.30  3758.58  15.56
1427.3  24156.22  3704.95  15.34
1431.1  24149.78  3671.18  15.20
1434.9  24082.82  3629.23  15.07
1438.8  24045.91  3598.28  14.96
1442.6  24021.66  3582.02  14.91
1446.4  23948.95  3563.53  14.88
1450.2  23899.20  3552.71  14.87
1454.0  23823.72  3544.64  14.88
1457.8  23805.13  3547.40  14.90
1461.6  23794.65  3556.67  14.95
1465.4  23719.51  3562.75  15.02
1469.2  23598.58  3567.96  15.12
1473.0  23505.47  3590.83  15.28
1476.8  23479.35  3631.89  15.47
1480.7  23444.07  3677.55  15.69
1484.4  23358.60  3725.52  15.95
1488.2  23294.76  3782.52  16.24
1492.0  23212.99  3842.30  16.55
1495.8  23134.48  3905.42  16.88
1499.6  23068.04  3957.86  17.16
1503.4  22989.82  4004.76  17.42
1507.2  22924.40  4057.84  17.70
1510.9  22832.54  4105.72  17.98
1514.7  22729.47  4141.68  18.22
1518.5  22650.58  4185.04  18.48
1522.3  22564.73  4231.82  18.75
1526.0  22502.83  4285.80  19.05
1529.8  22457.39  4349.77  19.37
1533.6  22379.96  4396.80  19.65
1537.3  22300.49  4445.85  19.94
1541.1  22218.14  4493.61  20.22
1544.8  22130.40  4538.40  20.51
1548.6  22049.49  4589.24  20.81
1552.4  21992.28  4643.86  21.12
1556.1  21940.64  4685.04  21.35
1559.9  21881.16  4711.39  21.53
1563.6  21806.79  4746.94  21.77
1567.3  21732.27  4796.73  22.07
1571.1  21585.13  4830.13  22.38
1574.8  21494.94  4883.01  22.72
1578.6  21441.85  4939.18  23.04
1582.3  21360.05  4973.90  23.29
1586.0  21278.88  5004.45  23.52
1589.8  21182.42  5029.34  23.74
1593.5  21087.16  5049.00  23.94
1597.2  21011.15  5073.31  24.15
1600.9  20910.91  5088.75  24.34
1604.7  20817.19  5110.38  24.55
1608.4  20751.75  5136.81  24.75
1612.1  20653.79  5152.83  24.95
1615.8  20554.46  5173.70  25.17
1619.5  20509.10  5207.21  25.39
1623.2  20415.20  5232.75  25.63
1626.9  20293.94  5243.63  25.84
1630.6  20187.64  5253.82  26.02
1634.3  20108.09  5266.40  26.19
1638.0  20016.12  5262.41  26.29
1641.7  19907.78  5253.97  26.39
1645.4  19793.59  5243.66  26.49
1649.1  19676.58  5227.09  26.57
1652.8  19573.89  5212.76  26.63
1656.4  19468.81  5195.78  26.69
1660.1  19373.12  5182.23  26.75
1663.8  19253.37  5162.32  26.81
1667.5  19154.03  5145.23  26.86
1671.1  19073.44  5125.18  26.87
1674.8  18955.63  5088.27  26.84
1678.5  18920.35  5075.19  26.82
1682.1  18926.99  5061.24  26.74
1685.8  18934.59  5046.40  26.65
1689.5  18875.64  5011.92  26.55
1693.1  18777.51  4960.41  26.42
1696.8  18693.63  4914.67  26.29
1700.4  18605.80  4857.69  26.11
1704.0  18533.22  4803.93  25.92
1707.7  18380.44  4729.04  25.73
1711.3  18186.09  4638.38  25.51
1715.0  18064.01  4562.03  25.25
1718.6  17962.81  4492.50  25.01
1722.2  17869.77  4428.31  24.78
1725.9  17778.98  4366.72  24.56
1729.5  17683.82  4311.17  24.38
1733.1  17615.86  4274.22  24.26
1736.7  17543.89  4238.23  24.16
1740.3  17426.02  4183.27  24.01
1744.0  17375.79  4139.49  23.82
1747.5  17289.32  4085.42  23.63
1751.2  17148.24  4011.13  23.39
1754.8  17043.21  3946.38  23.16
1758.4  16959.78  3888.30  22.93
1762.0  16844.84  3828.77  22.73
1765.5  16763.61  3788.96  22.60
1769.1  16735.20  3763.20  22.49
1772.7  16687.95  3729.96  22.35
1776.3  16608.65  3700.28  22.28
1779.9  16528.93  3665.74  22.18
1783.5  16504.40  3642.29  22.07
1787.0  16420.93  3612.72  22.00
1790.6  16313.97  3583.20  21.96
1794.2  16250.54  3565.34  21.94
1797.8  16183.76  3542.79  21.89
1801.3  16118.56  3531.43  21.91
1804.9  16020.38  3513.13  21.93
1808.4  15971.30  3500.84  21.92
1812.0  15882.75  3481.54  21.92
1815.5  15784.84  3457.39  21.90
1819.1  15650.89  3429.35  21.91
1822.6  15532.45  3403.56  21.91
1826.2  15446.30  3384.23  21.91
1829.7  15337.22  3347.23  21.82
1833.2  15178.78  3301.03  21.75
1836.8  15030.02  3266.75  21.73
1840.3  14950.04  3237.92  21.66
1843.8  14886.20  3209.34  21.56
1847.3  14837.06  3196.05  21.54
1850.8  14793.41  3167.81  21.41
1854.3  14722.56  3105.07  21.09
1857.8  14658.80  3033.33  20.69
1861.3  14629.20  2939.31  20.09
1864.8  14572.84  2798.09  19.20
1868.3  14425.58  2629.51  18.23
1871.8  14284.80  2465.28  17.26
1875.3  14255.61  2335.97  16.39
1878.8  14246.03  2214.50  15.54
1882.3  14193.40  2104.46  14.83
1885.8  14118.50  2013.10  14.26
1889.3  13979.52  1946.23  13.92
1892.7  13865.36  1894.75  13.67
1896.2  13804.86  1865.09  13.51
1899.7  13707.11  1853.10  13.52
1901.7  12697.20  1328.50  10.46
1904.5  12812.38  1311.92  10.24
1907.2  12777.50  1330.00  10.41
1910.0  12693.31  1343.12  10.58
1912.7  12674.55  1342.45  10.59
1915.5  12622.22  1338.49  10.60
1918.2  12592.16  1322.79  10.50
1921.0  12470.84  1312.30  10.52
1923.7  12502.92  1325.11  10.60
1926.5  12525.14  1318.95  10.53
1929.2  12499.59  1316.87  10.54
1932.0  12466.20  1332.47  10.69
1934.7  12450.39  1325.71  10.65
1937.4  12388.06  1292.36  10.43
1940.2  12333.29  1313.34  10.65
1942.9  12377.93  1327.62  10.73
1945.6  12406.16  1313.70  10.59
1948.3  12364.25  1322.66  10.70
1951.1  12353.04  1324.40  10.72
1953.8  12345.00  1313.00  10.64
1956.5  12249.55  1316.81  10.75
1959.2  12291.89  1335.53  10.87
1961.9  12307.40  1323.12  10.75
1964.6  12224.28  1326.85  10.85
1967.3  12284.97  1331.05  10.83
1970.0  12156.72  1306.35  10.75
1972.8  12093.19  1318.85  10.91
1975.5  12180.79  1348.22  11.07
1978.2  12109.24  1329.57  10.98
1980.9  12027.29  1323.41  11.00
1983.5  11996.88  1324.26  11.04
1986.2  11983.38  1326.96  11.07
1988.9  11983.38  1355.09  11.31
1991.6  11899.51  1337.30  11.24
1994.3  11798.84  1309.38  11.10
1997.0  11807.25  1339.79  11.35
1999.7  11770.96  1347.77  11.45
2002.3  11768.44  1329.98  11.30
2005.0  11742.55  1345.32  11.46
2007.7  11687.40  1356.89  11.61
2010.4  11651.26  1350.42  11.59
2013.0  11630.36  1344.74  11.56
2015.7  11528.64  1340.32  11.63
2018.4  11457.30  1336.07  11.66
2021.0  11452.33  1355.28  11.83
2023.7  11380.16  1345.49  11.82
2026.4  11323.00  1336.98  11.81
2029.0  11263.54  1363.66  12.11
2031.7  11193.43  1354.82  12.10
2034.3  11193.43  1342.61  11.99
2037.0  11130.51  1346.51  12.10
2039.6  11076.09  1345.71  12.15
2042.3  11047.98  1333.02  12.07
2044.9  11026.46  1339.86  12.15
2047.5  11001.21  1356.69  12.33
2050.2  10900.40  1340.27  12.30
2052.8  10894.80  1339.33  12.29
2055.4  10822.84  1342.93  12.41
2058.1  10738.00  1324.40  12.33
2060.7  10718.83  1327.63  12.39
2063.3  10653.43  1332.03  12.50
2065.9  10619.50  1326.04  12.49
2068.6  10577.63  1327.90  12.55
2071.2  10537.83  1335.48  12.67
2073.8  10490.95  1332.94  12.71
2076.4  10463.25  1325.68  12.67
2079.0  10439.15  1334.75  12.79
2081.6  10423.40  1324.14  12.70
2084.2  10414.77  1329.94  12.77
2086.8  10346.04  1345.34  13.00
2089.4  10282.92  1339.85  13.03
2092.1  10234.00  1334.50  13.04
2094.7  10195.43  1323.05  12.98
2097.2  10197.17  1329.78  13.04
2099.8  10202.45  1342.68  13.16
2102.4  10082.46  1328.79  13.18
2105.0  9986.40  1319.55  13.21
2107.6  9963.47  1319.73  13.25
2110.2  9945.83  1322.32  13.30
2112.8  9950.08  1324.77  13.31
2115.3  9950.34  1350.00  13.57
2117.9  9955.62  1347.34  13.53
2120.5  9928.49  1330.21  13.40
2123.1  9866.03  1335.75  13.54
2125.6  9842.13  1341.18  13.63
2128.2  9772.14  1348.22  13.80
2130.8  9719.78  1348.43  13.87
2133.3  9694.67  1339.56  13.82
2135.9  9628.08  1336.50  13.88
2138.4  9561.93  1336.81  13.98
2141.0  9493.76  1331.07  14.02
2143.6  9481.01  1321.21  13.94
2146.1  9385.04  1309.52  13.95
2148.7  9294.55  1298.01  13.97
2151.2  9319.20  1301.42  13.96
2153.8  9286.22  1316.65  14.18
2156.3  9196.68  1306.36  14.20
2158.8  9176.01  1297.50  14.14
2161.4  9166.37  1308.08  14.27
2163.9  9107.40  1303.16  14.31
2166.4  9056.27  1291.08  14.26
2169.0  9041.49  1294.03  14.31
2171.5  8982.35  1281.22  14.26
2174.0  8919.05  1274.30  14.29
2176.5  8910.20  1292.68  14.51
2179.1  8872.37  1271.93  14.34
2181.6  8820.83  1264.32  14.33
2184.1  8802.64  1285.39  14.60
2186.6  8815.58  1269.98  14.41
2189.1  8766.51  1227.29  14.00
2191.6  8725.27  1244.60  14.26
2194.1  8759.24  1279.95  14.61
2196.6  8743.02  1260.16  14.41
2199.2  8762.69  1269.75  14.49
2201.7  8728.52  1270.30  14.55
2204.1  8693.38  1255.88  14.45
2206.6  8724.47  1276.90  14.64
2209.1  8690.36  1273.02  14.65
2211.6  8648.75  1249.86  14.45
2214.1  8641.19  1268.49  14.68
2216.6  8629.81  1274.97  14.77
2219.1  8603.23  1254.72  14.58
2221.6  8565.00  1248.59  14.58
2224.0  8580.12  1236.98  14.42
2226.5  8553.64  1222.68  14.29
2229.0  8526.93  1234.63  14.48
2231.5  8456.64  1231.98  14.57
2233.9  8447.09  1216.07  14.40
2236.4  8434.10  1214.61  14.40
2238.9  8377.75  1190.92  14.22
2241.3  8418.52  1163.41  13.82
2243.8  8391.31  1167.30  13.91
2246.2  8272.81  1164.29  14.07
2248.7  8260.98  1151.86  13.94
2251.2  8270.85  1155.56  13.97
2253.6  8217.60  1146.88  13.96
2256.1  8198.40  1127.68  13.75
2258.5  8205.80  1139.69  13.89
2260.9  8176.22  1123.66  13.74
2263.4  8125.75  1091.37  13.43
2265.8  8124.16  1100.15  13.54
2268.3  8073.80  1076.25  13.33
2270.7  8110.40  1064.50  13.13
2273.1  8107.19  1080.19  13.32
2275.6  8037.12  1073.92  13.36
2278.0  8047.94  1059.48  13.16
2280.4  8050.71  1071.12  13.30
2282.8  7936.92  1051.81  13.25
2285.3  7936.09  1020.04  12.85
2287.7  8013.06  1042.64  13.01
2290.1  7946.20  1039.73  13.08
2292.5  7908.89  1023.83  12.95
2294.9  7966.56  1030.07  12.93
2297.3  7878.36  1001.94  12.72
2299.7  7782.17  980.51  12.60
2302.1  7817.38  987.32  12.63
2304.5  7722.40  956.48  12.39
2306.9  7647.92  946.03  12.37
2309.3  7632.91  946.93  12.41
2311.7  7536.00  928.92  12.33
2314.1  7439.51  913.69  12.28
2316.5  7426.90  940.35  12.66
2318.9  7433.98  930.23  12.51
2321.3  7420.20  908.54  12.24
2323.7  7439.58  943.76  12.69
2326.1  7403.11  938.99  12.68
2328.4  7412.50  916.73  12.37
2330.8  7505.15  933.88  12.44
2333.2  7417.12  940.35  12.68
2335.6  7356.75  909.21  12.36
2337.9  7411.84  908.40  12.26
2340.3  7376.47  909.64  12.33
2342.7  7282.70  887.24  12.18
2345.0  7270.29  900.29  12.38
2347.4  7284.50  902.42  12.39
2349.7  7133.68  855.76  12.00
2352.1  7080.04  869.10  12.28
2354.4  7143.83  885.46  12.39
2356.8  7126.82  857.58  12.03
2359.2  7067.67  869.55  12.30
2361.5  7038.06  859.58  12.21
2363.8  7031.06  847.59  12.05
2366.2  7039.27  856.19  12.16
2368.5  7035.45  842.53  11.98
2370.9  7023.13  829.06  11.80
2373.2  6987.82  818.39  11.71
2375.5  6900.63  828.08  12.00
2377.9  6892.20  822.02  11.93
2380.2  6890.83  810.96  11.77
2382.5  6864.93  813.32  11.85
2384.8  6830.08  794.99  11.64
2387.2  6784.02  822.02  12.12
2389.5  6780.31  829.44  12.23
2391.8  6787.76  796.98  11.74
2394.1  6727.26  793.33  11.79
2396.4  6676.90  788.65  11.81
2398.7  6732.64  816.82  12.13
2401.0  6690.59  812.63  12.15
2403.3  6603.48  775.22  11.74
2405.6  6572.81  763.08  11.61
2407.9  6583.14  769.87  11.69
2410.2  6542.40  767.04  11.72
2412.5  6479.13  753.78  11.63
2414.8  6475.24  737.73  11.39
2417.1  6452.08  751.88  11.65
2419.4  6434.35  739.82  11.50
2421.7  6386.85  709.65  11.11
2424.0  6345.28  718.53  11.32
2426.2  6355.80  727.60  11.45
2428.5  6327.75  712.10  11.25
2430.8  6349.25  723.03  11.39
2433.1  6300.57  732.03  11.62
2435.4  6204.86  718.03  11.57
2437.6  6227.24  716.16  11.50
2439.9  6165.27  686.90  11.14
2442.2  6149.09  699.67  11.38
2444.4  6162.60  716.00  11.62
2446.7  6079.44  685.23  11.27
2448.9  6081.55  684.94  11.26
2451.2  6103.04  711.23  11.65
2453.4  6038.72  679.01  11.24
2455.7  6026.93  673.04  11.17
2457.9  5958.48  706.15  11.85
2460.2  5949.23  661.71  11.12
2462.4  5977.92  651.04  10.89
2464.7  5891.98  664.48  11.28
2466.9  5829.36  648.42  11.12
2469.2  5872.39  663.29  11.30
2471.4  5796.90  645.56  11.14
2473.6  5737.62  611.48  10.66
2475.9  5730.24  634.44  11.07
2478.1  5663.45  646.73  11.42
2480.3  5645.91  624.23  11.06
2482.5  5682.93  655.26  11.53
2484.8  5614.17  669.91  11.93
2487.0  5547.59  619.69  11.17
2489.2  5555.75  653.32  11.76
2491.4  5471.72  653.23  11.94
2493.6  5479.00  572.20  10.44
2495.8  5550.75  636.11  11.46
2498.0  5512.53  662.05  12.01
2500.2  5509.95  589.75  10.70
2502.4  5736.48  648.24  11.30
2504.6  5803.02  654.17  11.27
2506.8  5806.03  629.96  10.85
